BADA PERFORMANCE FILE RESULTS
=============================
=============================

Low mass CLIMB
==============

 FL    T       p      rho     a      TAS     CAS     M     mass   Thrust    Drag     Fuel    ESF    ROCD   gamma Conf  Lim
[-]   [K]     [Pa]  [kg/m3] [m/s]   [kt]    [kt]    [-]    [kg]     [N]     [N]     [kgm]    [-]   [fpm]   [deg]  [-]     
  0  308.15  101325  1.145  351.9  128.34  124.11  0.188   15840   34376    9690     15.90  0.980   1893    8.96  TO   
  5  307.16   99508  1.129  351.3  139.71  134.11  0.205   15840   32556    9808     15.77  0.977   1892    8.22  IC   
 10  306.17   97717  1.112  350.8  145.99  139.11  0.214   15840   31521    9922     15.63  0.975   1873    7.79  IC   
 15  305.18   95952  1.095  350.2  179.70  170.00  0.264   15840   27581   11429     15.60  0.962   1701    5.74  IC   
 20  304.19   94213  1.079  349.6  181.03  170.00  0.266   15840   27216   11431     15.43  0.962   1673    5.61  CR   
 30  302.21   90812  1.047  348.5  183.73  170.00  0.271   15840   26480   11436     15.09  0.960   1616    5.34  CR   
 40  300.23   87511  1.015  347.4  186.48  170.00  0.276   15840   25741   11441     14.74  0.959   1556    5.06  CR   
 60  296.26   81200  0.955  345.1  192.17  170.00  0.287   15840   24261   11451     14.05  0.956   1431    4.52  CR   
 80  292.30   75262  0.897  342.7  198.11  170.00  0.297   15840   22791   11461     13.37  0.953   1299    3.99  CR   
100  288.34   69682  0.842  340.4  204.32  170.00  0.309   15840   21349   11470     12.70  0.949   1163    3.46  CR   
120  284.38   64441  0.789  338.1  210.80  170.00  0.321   15840   19948   11478     12.05  0.946   1023    2.96  CR   
140  280.41   59524  0.739  335.7  217.58  170.00  0.333   15840   18597   11483     11.42  0.942    882    2.47  CR   
160  276.45   54915  0.692  333.3  224.66  170.00  0.347   15840   17308   11485     10.82  0.937    742    2.01  CR   
180  272.49   50600  0.647  330.9  232.08  170.00  0.361   15840   16086   11481     10.24  0.933    602    1.58  CR   
200  268.53   46563  0.604  328.5  239.84  170.00  0.376   15840   14936   11470      9.71  0.928    465    1.19  CR   
220  264.56   42791  0.563  326.1  247.96  170.00  0.391   15840   13860   11449      9.21  0.922    332    0.82  CR   
240  260.60   39271  0.525  323.6  256.47  170.00  0.408   15840   12858   11415      8.75  0.916    204    0.49  CR   
250  258.62   37601  0.506  322.4  260.88  170.00  0.416   15840   12384   11393      8.53  0.913    142    0.33  CR   


Medium mass CLIMB
=================

 FL    T       p      rho     a      TAS     CAS     M     mass   Thrust    Drag     Fuel    ESF    ROCD   gamma Conf  Lim
[-]   [K]     [Pa]  [kg/m3] [m/s]   [kt]    [kt]    [-]    [kg]     [N]     [N]     [kgm]    [-]   [fpm]   [deg]  [-]     
  0  308.15  101325  1.145  351.9  141.42  136.75  0.207   19920   32604   12180     15.95  0.976   1367    5.86  TO   
  5  307.16   99508  1.129  351.3  152.87  146.75  0.224   19920   30970   12378     15.83  0.972   1339    5.31  IC   
 10  306.17   97717  1.112  350.8  159.25  151.75  0.234   19920   30003   12462     15.69  0.970   1313    5.00  IC   
 15  305.18   95952  1.095  350.2  179.70  170.00  0.264   19920   27581   13114     15.60  0.962   1212    4.09  IC   
 20  304.19   94213  1.079  349.6  181.03  170.00  0.266   19920   27216   13118     15.43  0.962   1189    3.98  CR   
 30  302.21   90812  1.047  348.5  183.73  170.00  0.271   19920   26480   13126     15.09  0.960   1141    3.76  CR   
 40  300.23   87511  1.015  347.4  186.48  170.00  0.276   19920   25741   13133     14.74  0.959   1091    3.55  CR   
 60  296.26   81200  0.955  345.1  192.17  170.00  0.287   19920   24261   13146     14.05  0.956    987    3.12  CR   
 80  292.30   75262  0.897  342.7  198.11  170.00  0.297   19920   22791   13155     13.37  0.953    878    2.69  CR   
100  288.34   69682  0.842  340.4  204.32  170.00  0.309   19920   21349   13161     12.70  0.949    766    2.28  CR   
120  284.38   64441  0.789  338.1  210.80  170.00  0.321   19920   19948   13162     12.05  0.946    652    1.88  CR   
140  280.41   59524  0.739  335.7  217.58  170.00  0.333   19920   18597   13155     11.42  0.942    537    1.50  CR   
160  276.45   54915  0.692  333.3  224.66  170.00  0.347   19920   17308   13139     10.82  0.937    422    1.15  CR   
180  272.49   50600  0.647  330.9  232.08  170.00  0.361   19920   16086   13111     10.24  0.933    309    0.81  CR   
200  268.53   46563  0.604  328.5  239.84  170.00  0.376   19920   14936   13070      9.71  0.928    199    0.51  CR   
220  264.56   42791  0.563  326.1  247.96  170.00  0.391   19920   13860   13012      9.21  0.922     93    0.23  CR   
240  260.60   39271  0.525  323.6  256.47  170.00  0.408   19920   12858   12937      8.75  0.916     -9   -0.02  CR   
250  258.62   37601  0.506  322.4  260.88  170.00  0.416   19920   12384   12893      8.53  0.913    -58   -0.14  CR   


High mass CLIMB
===============

 FL    T       p      rho     a      TAS     CAS     M     mass   Thrust    Drag     Fuel    ESF    ROCD   gamma Conf  Lim
[-]   [K]     [Pa]  [kg/m3] [m/s]   [kt]    [kt]    [-]    [kg]     [N]     [N]     [kgm]    [-]   [fpm]   [deg]  [-]     
  0  308.15  101325  1.145  351.9  149.85  144.90  0.219   22800   31572   13951     15.99  0.974   1089    4.40  TO   
  5  307.16   99508  1.129  351.3  161.37  154.90  0.236   22800   30010   14217     15.87  0.969   1046    3.93  IC   
 10  306.17   97717  1.112  350.8  167.80  159.90  0.246   22800   29070   14279     15.73  0.967   1016    3.67  IC   
 15  305.18   95952  1.095  350.2  179.70  170.00  0.264   22800   27581   14535     15.60  0.962    955    3.22  IC   
 20  304.19   94213  1.079  349.6  181.03  170.00  0.266   22800   27216   14540     15.43  0.962    934    3.12  CR   
 30  302.21   90812  1.047  348.5  183.73  170.00  0.271   22800   26480   14550     15.09  0.960    890    2.94  CR   
 40  300.23   87511  1.015  347.4  186.48  170.00  0.276   22800   25741   14559     14.74  0.959    845    2.75  CR   
 60  296.26   81200  0.955  345.1  192.17  170.00  0.287   22800   24261   14575     14.05  0.956    751    2.37  CR   
 80  292.30   75262  0.897  342.7  198.11  170.00  0.297   22800   22791   14585     13.37  0.953    654    2.00  CR   
100  288.34   69682  0.842  340.4  204.32  170.00  0.309   22800   21349   14588     12.70  0.949    553    1.65  CR   
120  284.38   64441  0.789  338.1  210.80  170.00  0.321   22800   19948   14582     12.05  0.946    450    1.30  CR   
140  280.41   59524  0.739  335.7  217.58  170.00  0.333   22800   18597   14564     11.42  0.942    348    0.97  CR   
160  276.45   54915  0.692  333.3  224.66  170.00  0.347   22800   17308   14533     10.82  0.937    245    0.67  CR   
180  272.49   50600  0.647  330.9  232.08  170.00  0.361   22800   16086   14486     10.24  0.933    145    0.38  CR   
200  268.53   46563  0.604  328.5  239.84  170.00  0.376   22800   14936   14419      9.71  0.928     48    0.12  CR   
220  264.56   42791  0.563  326.1  247.96  170.00  0.391   22800   13860   14331      9.21  0.922    -45   -0.11  CR   
240  260.60   39271  0.525  323.6  256.47  170.00  0.408   22800   12858   14221      8.75  0.916   -134   -0.32  CR   
250  258.62   37601  0.506  322.4  260.88  170.00  0.416   22800   12384   14159      8.53  0.913   -177   -0.42  CR   


Low mass DESCENT
================

 FL    T       p      rho     a      TAS     CAS     M     mass   Thrust    Drag     Fuel    ESF    ROCD   gamma Conf  Lim
[-]   [K]     [Pa]  [kg/m3] [m/s]   [kt]    [kt]    [-]    [kg]     [N]     [N]     [kgm]    [-]   [fpm]   [deg]  [-]     
  0  308.15  101325  1.145  351.9  102.84   99.45  0.150   15840    7344   15578      8.36  0.987    510   -3.00  LD   
  5  307.16   99508  1.129  351.3  103.61   99.45  0.152   15840    7342   15578      8.20  0.987    513   -3.00  LD   
 10  306.17   97717  1.112  350.8  109.62  104.45  0.161   15840    7480   15730      7.99  0.985    543   -3.00  LD   
 15  305.18   95952  1.095  350.2  121.01  114.45  0.178   15840    1574    9851      6.45  0.982    599   -3.00  AP   
 20  304.19   94213  1.079  349.6  153.85  144.45  0.226   15840   -7159   10094      2.96  0.972   1571   -6.20  CR   
 30  302.21   90812  1.047  348.5  237.62  220.00  0.351   15840   -3888   16323      2.68  0.936   2737   -7.00  CR   
 40  300.23   87511  1.015  347.4  241.13  220.00  0.357   15840   -3591   16341      2.67  0.934   2731   -6.88  CR   
 60  296.26   81200  0.955  345.1  259.59  230.00  0.387   15840   -3097   17693      2.70  0.924   3031   -7.10  CR   
 80  292.30   75262  0.897  342.7  267.44  230.00  0.401   15840   -2824   17725      2.65  0.919   3066   -6.98  CR   
100  288.34   69682  0.842  340.4  275.63  230.00  0.417   15840   -2638   17744      2.59  0.913   3113   -6.88  CR   
120  284.38   64441  0.789  338.1  284.17  230.00  0.432   15840   -2510   17744      2.53  0.907   3166   -6.80  CR   
140  280.41   59524  0.739  335.7  293.08  230.00  0.449   15840   -2414   17718      2.47  0.901   3220   -6.71  CR   
160  276.45   54915  0.692  333.3  302.36  230.00  0.467   15840   -2331   17661      2.41  0.895   3271   -6.61  CR   
180  272.49   50600  0.647  330.9  312.05  230.00  0.485   15840   -2243   17575      2.37  0.888   3316   -6.50  CR   
200  268.53   46563  0.604  328.5  322.15  230.00  0.505   15840   -2137   17475      2.36  0.880   3355   -6.38  CR   
220  264.56   42791  0.563  326.1  332.70  230.00  0.525   15840   -2001   17405      2.38  0.872   3393   -6.25  CR   
240  260.60   39271  0.525  323.6  343.71  230.00  0.546   15840   -1824   17465      2.45  0.864   3446   -6.16  CR   
250  258.62   37601  0.506  322.4  344.67  226.75  0.550   15840   -1600   17056      2.52  1.039   4017   -7.17  CR   


Medium mass DESCENT
===================

 FL    T       p      rho     a      TAS     CAS     M     mass   Thrust    Drag     Fuel    ESF    ROCD   gamma Conf  Lim
[-]   [K]     [Pa]  [kg/m3] [m/s]   [kt]    [kt]    [-]    [kg]     [N]     [N]     [kgm]    [-]   [fpm]   [deg]  [-]     
  0  308.15  101325  1.145  351.9  114.70  110.92  0.168   19920    9200   19588      8.55  0.984    568   -3.00  LD   
  5  307.16   99508  1.129  351.3  115.55  110.92  0.169   19920    9197   19588      8.41  0.984    573   -3.00  LD   
 10  306.17   97717  1.112  350.8  121.66  115.92  0.178   19920    9307   19716      8.27  0.982    603   -3.00  LD   
 15  305.18   95952  1.095  350.2  133.13  125.92  0.196   19920   10155   20601      8.35  0.979    659   -3.00  LD   
 20  304.19   94213  1.079  349.6  166.05  155.92  0.244   19920   -6525   12573      2.82  0.967   1486   -5.43  CR   
 30  302.21   90812  1.047  348.5  237.62  220.00  0.351   19920   -3888   17296      2.68  0.936   2281   -5.83  CR   
 40  300.23   87511  1.015  347.4  241.13  220.00  0.357   19920   -3591   17307      2.67  0.934   2277   -5.73  CR   
 60  296.26   81200  0.955  345.1  259.59  230.00  0.387   19920   -3097   18541      2.70  0.924   2508   -5.87  CR   
 80  292.30   75262  0.897  342.7  267.44  230.00  0.401   19920   -2824   18554      2.65  0.919   2537   -5.77  CR   
100  288.34   69682  0.842  340.4  275.63  230.00  0.417   19920   -2638   18553      2.59  0.913   2574   -5.69  CR   
120  284.38   64441  0.789  338.1  284.17  230.00  0.432   19920   -2510   18531      2.53  0.907   2615   -5.61  CR   
140  280.41   59524  0.739  335.7  293.08  230.00  0.449   19920   -2414   18485      2.47  0.901   2658   -5.53  CR   
160  276.45   54915  0.692  333.3  302.36  230.00  0.467   19920   -2331   18411      2.41  0.895   2698   -5.45  CR   
180  272.49   50600  0.647  330.9  312.05  230.00  0.485   19920   -2243   18312      2.37  0.888   2735   -5.36  CR   
200  268.53   46563  0.604  328.5  322.15  230.00  0.505   19920   -2137   18202      2.36  0.880   2767   -5.26  CR   
220  264.56   42791  0.563  326.1  332.70  230.00  0.525   19920   -2001   18115      2.38  0.872   2797   -5.15  CR   
240  260.60   39271  0.525  323.6  343.71  230.00  0.546   19920   -1824   18108      2.45  0.864   2832   -5.06  CR   
250  258.62   37601  0.506  322.4  344.67  226.75  0.550   19920   -1600   17696      2.52  1.039   3304   -5.89  CR   


High mass DESCENT
=================

 FL    T       p      rho     a      TAS     CAS     M     mass   Thrust    Drag     Fuel    ESF    ROCD   gamma Conf  Lim
[-]   [K]     [Pa]  [kg/m3] [m/s]   [kt]    [kt]    [-]    [kg]     [N]     [N]     [kgm]    [-]   [fpm]   [deg]  [-]     
  0  308.15  101325  1.145  351.9  122.35  118.32  0.179   22800   10504   22419      8.79  0.982    606   -3.00  LD   
  5  307.16   99508  1.129  351.3  123.26  118.32  0.180   22800   10500   22419      8.66  0.982    611   -3.00  LD   
 10  306.17   97717  1.112  350.8  129.42  123.32  0.190   22800   10591   22533      8.56  0.980    641   -3.00  LD   
 15  305.18   95952  1.095  350.2  140.95  133.32  0.207   22800   11411   23398      8.73  0.976    698   -3.00  LD   
 20  304.19   94213  1.079  349.6  173.92  163.32  0.256   22800   -6152   14356      2.75  0.964   1455   -5.07  CR   
 30  302.21   90812  1.047  348.5  237.62  220.00  0.351   22800   -3888   18117      2.68  0.936   2070   -5.29  CR   
 40  300.23   87511  1.015  347.4  241.13  220.00  0.357   22800   -3591   18122      2.67  0.934   2067   -5.20  CR   
 60  296.26   81200  0.955  345.1  259.59  230.00  0.387   22800   -3097   19256      2.70  0.924   2264   -5.30  CR   
 80  292.30   75262  0.897  342.7  267.44  230.00  0.401   22800   -2824   19253      2.65  0.919   2289   -5.20  CR   
100  288.34   69682  0.842  340.4  275.63  230.00  0.417   22800   -2638   19234      2.59  0.913   2321   -5.13  CR   
120  284.38   64441  0.789  338.1  284.17  230.00  0.432   22800   -2510   19195      2.53  0.907   2357   -5.05  CR   
140  280.41   59524  0.739  335.7  293.08  230.00  0.449   22800   -2414   19131      2.47  0.901   2394   -4.98  CR   
160  276.45   54915  0.692  333.3  302.36  230.00  0.467   22800   -2331   19043      2.41  0.895   2429   -4.91  CR   
180  272.49   50600  0.647  330.9  312.05  230.00  0.485   22800   -2243   18933      2.37  0.888   2461   -4.82  CR   
200  268.53   46563  0.604  328.5  322.15  230.00  0.505   22800   -2137   18816      2.36  0.880   2490   -4.73  CR   
220  264.56   42791  0.563  326.1  332.70  230.00  0.525   22800   -2001   18713      2.38  0.872   2516   -4.63  CR   
240  260.60   39271  0.525  323.6  343.71  230.00  0.546   22800   -1824   18649      2.45  0.864   2541   -4.54  CR   
250  258.62   37601  0.506  322.4  344.67  226.75  0.550   22800   -1600   18235      2.52  1.039   2967   -5.29  CR   


Low mass CRUISE
===============

 FL    T       p      rho     a      TAS     CAS     M     mass   Thrust    Drag     Fuel    ESF    ROCD   gamma Conf  Lim
[-]   [K]     [Pa]  [kg/m3] [m/s]   [kt]    [kt]    [-]    [kg]     [N]     [N]     [kgm]    [-]   [fpm]   [deg]  [-]     
  0  308.15  101325  1.145  351.9  155.12  150.00  0.227   15840   10293   10293      8.92  0.000      0    0.00  CR   
  5  307.16   99508  1.129  351.3  156.26  150.00  0.229   15840   10297   10297      8.82  0.000      0    0.00  CR   
 10  306.17   97717  1.112  350.8  157.41  150.00  0.231   15840   10300   10300      8.73  0.000      0    0.00  CR   
 15  305.18   95952  1.095  350.2  158.58  150.00  0.233   15840   10304   10304      8.63  0.000      0    0.00  CR   
 20  304.19   94213  1.079  349.6  159.75  150.00  0.235   15840   10308   10308      8.54  0.000      0    0.00  CR   
 30  302.21   90812  1.047  348.5  194.51  180.00  0.287   15840   12185   12185      9.82  0.000      0    0.00  CR   
 40  300.23   87511  1.015  347.4  197.42  180.00  0.292   15840   12190   12190      9.71  0.000      0    0.00  CR   
 60  296.26   81200  0.955  345.1  259.59  230.00  0.387   15840   17693   17693     13.84  0.000      0    0.00  CR   
 80  292.30   75262  0.897  342.7  267.44  230.00  0.401   15840   17725   17725     13.69  0.000      0    0.00  CR   T
100  288.34   69682  0.842  340.4  263.79  220.00  0.399   15840   16433   16433     12.54  0.000      0    0.00  CR   
120  284.38   64441  0.789  338.1  272.00  220.00  0.414   15840   16447   16447     12.43  0.000      0    0.00  CR   T
140  280.41   59524  0.739  335.7  280.56  220.00  0.430   15840   16444   16444     12.36  0.000      0    0.00  CR   T
160  276.45   54915  0.692  333.3  289.49  220.00  0.447   15840   16417   16417     12.38  0.000      0    0.00  CR   T
180  272.49   50600  0.647  330.9  289.46  212.95  0.450   15840   15540   15540     11.65  0.000      0    0.00  CR   T
200  268.53   46563  0.604  328.5  287.35  204.48  0.450   15840   14557   14557     10.83  0.000      0    0.00  CR   T
220  264.56   42791  0.563  326.1  285.22  196.21  0.450   15840   13661   13661     10.08  0.000      0    0.00  CR   T
240  260.60   39271  0.525  323.6  283.08  188.13  0.450   15840   12851   12851      9.42  0.000      0    0.00  CR   T
250  258.62   37601  0.506  322.4  282.00  184.16  0.450   15840   12477   12477      9.11  0.000      0    0.00  CR   T


Medium mass CRUISE
==================

 FL    T       p      rho     a      TAS     CAS     M     mass   Thrust    Drag     Fuel    ESF    ROCD   gamma Conf  Lim
[-]   [K]     [Pa]  [kg/m3] [m/s]   [kt]    [kt]    [-]    [kg]     [N]     [N]     [kgm]    [-]   [fpm]   [deg]  [-]     
  0  308.15  101325  1.145  351.9  155.12  150.00  0.227   19920   12416   12416      9.56  0.000      0    0.00  CR   
  5  307.16   99508  1.129  351.3  156.26  150.00  0.229   19920   12423   12423      9.47  0.000      0    0.00  CR   
 10  306.17   97717  1.112  350.8  157.41  150.00  0.231   19920   12430   12430      9.38  0.000      0    0.00  CR   
 15  305.18   95952  1.095  350.2  158.58  150.00  0.233   19920   12437   12437      9.30  0.000      0    0.00  CR   
 20  304.19   94213  1.079  349.6  159.75  150.00  0.235   19920   12444   12444      9.22  0.000      0    0.00  CR   
 30  302.21   90812  1.047  348.5  194.51  180.00  0.287   19920   13693   13693     10.39  0.000      0    0.00  CR   
 40  300.23   87511  1.015  347.4  197.42  180.00  0.292   19920   13699   13699     10.29  0.000      0    0.00  CR   
 60  296.26   81200  0.955  345.1  259.59  230.00  0.387   19920   18541   18541     14.22  0.000      0    0.00  CR   T
 80  292.30   75262  0.897  342.7  267.44  230.00  0.401   19920   18554   18554     14.09  0.000      0    0.00  CR   T
100  288.34   69682  0.842  340.4  263.79  220.00  0.399   19920   17346   17346     12.97  0.000      0    0.00  CR   T
120  284.38   64441  0.789  338.1  272.00  220.00  0.414   19920   17337   17337     12.89  0.000      0    0.00  CR   T
140  280.41   59524  0.739  335.7  280.56  220.00  0.430   19920   17309   17309     12.88  0.000      0    0.00  CR   T
160  276.45   54915  0.692  333.3  289.49  220.00  0.447   19920   17259   17259     12.96  0.000      0    0.00  CR   T
180  272.49   50600  0.647  330.9  289.46  212.95  0.450   19920   16437   16437     12.31  0.000      0    0.00  CR   T
200  268.53   46563  0.604  328.5  287.35  204.48  0.450   19920   15532   15532     11.57  0.000      0    0.00  CR   T
220  264.56   42791  0.563  326.1  285.22  196.21  0.450   19920   14722   14722     10.92  0.000      0    0.00  CR   T
240  260.60   39271  0.525  323.6  283.08  188.13  0.450   19920   14007   14007     10.37  0.000      0    0.00  CR   T
250  258.62   37601  0.506  322.4  282.00  184.16  0.450   19920   13684   13684     10.14  0.000      0    0.00  CR   T


High mass CRUISE
================

 FL    T       p      rho     a      TAS     CAS     M     mass   Thrust    Drag     Fuel    ESF    ROCD   gamma Conf  Lim
[-]   [K]     [Pa]  [kg/m3] [m/s]   [kt]    [kt]    [-]    [kg]     [N]     [N]     [kgm]    [-]   [fpm]   [deg]  [-]     
  0  308.15  101325  1.145  351.9  155.12  150.00  0.227   22800   14205   14205     10.12  0.000      0    0.00  CR   
  5  307.16   99508  1.129  351.3  156.26  150.00  0.229   22800   14215   14215     10.03  0.000      0    0.00  CR   
 10  306.17   97717  1.112  350.8  157.41  150.00  0.231   22800   14226   14226      9.95  0.000      0    0.00  CR   
 15  305.18   95952  1.095  350.2  158.58  150.00  0.233   22800   14236   14236      9.87  0.000      0    0.00  CR   
 20  304.19   94213  1.079  349.6  159.75  150.00  0.235   22800   14245   14245      9.79  0.000      0    0.00  CR   
 30  302.21   90812  1.047  348.5  194.51  180.00  0.287   22800   14965   14965     10.87  0.000      0    0.00  CR   
 40  300.23   87511  1.015  347.4  197.42  180.00  0.292   22800   14971   14971     10.78  0.000      0    0.00  CR   
 60  296.26   81200  0.955  345.1  259.59  230.00  0.387   22800   19256   19256     14.56  0.000      0    0.00  CR   T
 80  292.30   75262  0.897  342.7  267.44  230.00  0.401   22800   19253   19253     14.43  0.000      0    0.00  CR   T
100  288.34   69682  0.842  340.4  263.79  220.00  0.399   22800   18115   18115     13.36  0.000      0    0.00  CR   T
120  284.38   64441  0.789  338.1  272.00  220.00  0.414   22800   18087   18087     13.30  0.000      0    0.00  CR   T
140  280.41   59524  0.739  335.7  280.56  220.00  0.430   22800   18039   18039     13.33  0.000      0    0.00  CR   T
160  276.45   54915  0.692  333.3  289.49  220.00  0.447   22800   17970   17970     13.50  0.000      0    0.00  CR   T
180  272.49   50600  0.647  330.9  289.46  212.95  0.450   22800   17193   17193     12.92  0.000      0    0.00  CR   T
200  268.53   46563  0.604  328.5  287.35  204.48  0.450   22800   16354   16354     12.26  0.000      0    0.00  CR   T
220  264.56   42791  0.563  326.1  285.22  196.21  0.450   22800   15616   15616     11.71  0.000      0    0.00  CR   T
240  260.60   39271  0.525  323.6  283.08  188.13  0.450   22800   14981   14981     11.31  0.000      0    0.00  CR   T
250  258.62   37601  0.506  322.4  282.00  184.16  0.450   22800   14702   14702     11.16  0.000      0    0.00  CR   T
