BADA PERFORMANCE FILE RESULTS
=============================
=============================

Low mass CLIMB
==============

 FL    T       p      rho     a      TAS     CAS     M     mass   Thrust    Drag     Fuel    ESF    ROCD   gamma Conf  Lim
[-]   [K]     [Pa]  [kg/m3] [m/s]   [kt]    [kt]    [-]    [kg]     [N]     [N]     [kgm]    [-]   [fpm]   [deg]  [-]     
  0  288.15  101325  1.225  340.3  123.15  123.15  0.186   13500   29379    9024     12.46  0.981   1881    8.67  TO   
  5  287.16   99508  1.207  339.7  134.12  133.15  0.203   13500   27767    8698     12.44  0.977   1912    8.09  IC   
 10  286.17   97717  1.190  339.1  140.17  138.15  0.213   13500   26913    8753     12.39  0.975   1899    7.69  IC   
 15  285.18   95952  1.172  338.5  173.71  170.00  0.264   13500   22962   10041     12.36  0.963   1653    5.39  IC   
 20  284.19   94213  1.155  337.9  174.98  170.00  0.266   13500   22808   10046     12.29  0.962   1643    5.32  CR   
 30  282.21   90812  1.121  336.8  177.54  170.00  0.271   13500   22501   10056     12.14  0.961   1624    5.18  CR   
 40  280.23   87511  1.088  335.6  180.16  170.00  0.276   13500   22195   10065     12.01  0.959   1604    5.04  CR   
 60  276.26   81200  1.024  333.2  185.57  170.00  0.287   13500   21591   10082     11.75  0.957   1563    4.77  CR   
 80  272.30   75262  0.963  330.8  191.22  170.00  0.297   13500   20995   10097     11.52  0.953   1520    4.50  CR   
100  268.34   69682  0.905  328.4  185.59  160.00  0.291   13500   21397    9553     11.36  0.955   1606    4.90  CR   
120  264.38   64441  0.849  326.0  191.39  160.00  0.302   13500   20387    9563     11.00  0.952   1509    4.46  CR   
140  260.41   59524  0.796  323.5  197.46  160.00  0.314   13500   18997    9569     10.44  0.949   1351    3.87  CR   
160  256.45   54915  0.746  321.0  203.81  160.00  0.327   13500   17670    9571      9.91  0.945   1193    3.31  CR   
180  252.49   50600  0.698  318.5  210.44  160.00  0.340   13500   16411    9568      9.42  0.941   1036    2.79  CR   
200  248.53   46563  0.653  316.0  217.38  160.00  0.354   13500   15218    9559      8.95  0.936    881    2.29  CR   
220  244.56   42791  0.610  313.5  224.65  160.00  0.369   13500   14094    9544      8.53  0.931    728    1.83  CR   
240  240.60   39271  0.569  311.0  232.26  160.00  0.384   13500   13036    9522      8.14  0.926    578    1.41  CR   
250  238.62   37601  0.549  309.7  236.19  160.00  0.392   13500   12531    9509      7.95  0.923    504    1.21  CR   


Medium mass CLIMB
=================

 FL    T       p      rho     a      TAS     CAS     M     mass   Thrust    Drag     Fuel    ESF    ROCD   gamma Conf  Lim
[-]   [K]     [Pa]  [kg/m3] [m/s]   [kt]    [kt]    [-]    [kg]     [N]     [N]     [kgm]    [-]   [fpm]   [deg]  [-]     
  0  288.15  101325  1.225  340.3  131.96  131.96  0.200   15905   28112   10600     12.51  0.978   1468    6.31  TO   
  5  287.16   99508  1.207  339.7  142.99  141.96  0.217   15905   26586   10274     12.48  0.974   1476    5.85  IC   
 10  286.17   97717  1.190  339.1  149.11  146.96  0.226   15905   25777   10310     12.42  0.972   1456    5.53  IC   
 15  285.18   95952  1.172  338.5  173.71  170.00  0.264   15905   22962   11043     12.36  0.963   1294    4.22  IC   
 20  284.19   94213  1.155  337.9  174.98  170.00  0.266   15905   22808   11047     12.29  0.962   1286    4.16  CR   
 30  282.21   90812  1.121  336.8  177.54  170.00  0.271   15905   22501   11056     12.14  0.961   1268    4.04  CR   
 40  280.23   87511  1.088  335.6  180.16  170.00  0.276   15905   22195   11064     12.01  0.959   1249    3.93  CR   
 60  276.26   81200  1.024  333.2  185.57  170.00  0.287   15905   21591   11079     11.75  0.957   1212    3.70  CR   
 80  272.30   75262  0.963  330.8  191.22  170.00  0.297   15905   20995   11090     11.52  0.953   1172    3.47  CR   
100  268.34   69682  0.905  328.4  185.59  160.00  0.291   15905   21397   10679     11.36  0.955   1234    3.76  CR   
120  264.38   64441  0.849  326.0  191.39  160.00  0.302   15905   20387   10684     11.00  0.952   1148    3.40  CR   
140  260.41   59524  0.796  323.5  197.46  160.00  0.314   15905   18997   10686     10.44  0.949   1011    2.90  CR   
160  256.45   54915  0.746  321.0  203.81  160.00  0.327   15905   17670   10682      9.91  0.945    874    2.43  CR   
180  252.49   50600  0.698  318.5  210.44  160.00  0.340   15905   16411   10673      9.42  0.941    737    1.98  CR   
200  248.53   46563  0.653  316.0  217.38  160.00  0.354   15905   15218   10656      8.95  0.936    603    1.57  CR   
220  244.56   42791  0.610  313.5  224.65  160.00  0.369   15905   14094   10632      8.53  0.931    470    1.18  CR   
240  240.60   39271  0.569  311.0  232.26  160.00  0.384   15905   13036   10602      8.14  0.926    340    0.83  CR   
250  238.62   37601  0.549  309.7  236.19  160.00  0.392   15905   12531   10584      7.95  0.923    276    0.66  CR   


High mass CLIMB
===============

 FL    T       p      rho     a      TAS     CAS     M     mass   Thrust    Drag     Fuel    ESF    ROCD   gamma Conf  Lim
[-]   [K]     [Pa]  [kg/m3] [m/s]   [kt]    [kt]    [-]    [kg]     [N]     [N]     [kgm]    [-]   [fpm]   [deg]  [-]     
  0  288.15  101325  1.225  340.3  138.78  138.78  0.210   17900   27181   11913     12.54  0.976   1193    4.87  TO   
  5  287.16   99508  1.207  339.7  149.86  148.78  0.227   17900   25720   11589     12.49  0.972   1188    4.49  IC   
 10  286.17   97717  1.190  339.1  156.02  153.78  0.237   17900   24944   11609     12.43  0.970   1164    4.22  IC   
 15  285.18   95952  1.172  338.5  173.71  170.00  0.264   17900   22962   11998     12.36  0.963   1058    3.45  IC   
 20  284.19   94213  1.155  337.9  174.98  170.00  0.266   17900   22808   12002     12.29  0.962   1049    3.40  CR   
 30  282.21   90812  1.121  336.8  177.54  170.00  0.271   17900   22501   12010     12.14  0.961   1032    3.29  CR   
 40  280.23   87511  1.088  335.6  180.16  170.00  0.276   17900   22195   12017     12.01  0.959   1015    3.19  CR   
 60  276.26   81200  1.024  333.2  185.57  170.00  0.287   17900   21591   12029     11.75  0.957    979    2.99  CR   
 80  272.30   75262  0.963  330.8  191.22  170.00  0.297   17900   20995   12037     11.52  0.953    942    2.79  CR   
100  268.34   69682  0.905  328.4  185.59  160.00  0.291   17900   21397   11752     11.36  0.955    987    3.01  CR   
120  264.38   64441  0.849  326.0  191.39  160.00  0.302   17900   20387   11754     11.00  0.952    908    2.68  CR   
140  260.41   59524  0.796  323.5  197.46  160.00  0.314   17900   18997   11751     10.44  0.949    783    2.24  CR   
160  256.45   54915  0.746  321.0  203.81  160.00  0.327   17900   17670   11742      9.91  0.945    659    1.83  CR   
180  252.49   50600  0.698  318.5  210.44  160.00  0.340   17900   16411   11726      9.42  0.941    535    1.44  CR   
200  248.53   46563  0.653  316.0  217.38  160.00  0.354   17900   15218   11702      8.95  0.936    413    1.07  CR   
220  244.56   42791  0.610  313.5  224.65  160.00  0.369   17900   14094   11671      8.53  0.931    292    0.74  CR   
240  240.60   39271  0.569  311.0  232.26  160.00  0.384   17900   13036   11631      8.14  0.926    174    0.42  CR   
250  238.62   37601  0.549  309.7  236.19  160.00  0.392   17900   12531   11608      7.95  0.923    116    0.28  CR   


Low mass DESCENT
================

 FL    T       p      rho     a      TAS     CAS     M     mass   Thrust    Drag     Fuel    ESF    ROCD   gamma Conf  Lim
[-]   [K]     [Pa]  [kg/m3] [m/s]   [kt]    [kt]    [-]    [kg]     [N]     [N]     [kgm]    [-]   [fpm]   [deg]  [-]     
  0  288.15  101325  1.225  340.3   97.08   97.08  0.147   13500    6609   13622      6.97  0.988    515   -3.00  LD   
  5  287.16   99508  1.207  339.7   97.79   97.08  0.148   13500    6607   13622      6.83  0.988    518   -3.00  LD   
 10  286.17   97717  1.190  339.1  103.58  102.08  0.157   13500    6666   13691      6.61  0.986    549   -3.00  LD   
 15  285.18   95952  1.172  338.5  114.56  112.08  0.174   13500    2932    9979      5.66  0.983    607   -3.00  AP   
 20  284.19   94213  1.155  337.9  146.27  142.08  0.223   13500   -3802    8835      3.15  0.973   1376   -5.33  CR   
 30  282.21   90812  1.121  336.8  229.62  220.00  0.351   13500   -2289   14368      2.93  0.937   2741   -6.77  CR   
 40  280.23   87511  1.088  335.6  232.96  220.00  0.357   13500   -2188   14370      2.88  0.935   2759   -6.72  CR   
 60  276.26   81200  1.024  333.2  250.67  230.00  0.387   13500   -2066   15470      2.79  0.925   3110   -7.04  CR   
 80  272.30   75262  0.963  330.8  258.13  230.00  0.401   13500   -1897   15454      2.78  0.920   3152   -6.93  CR   
100  268.34   69682  0.905  328.4  265.90  230.00  0.417   13500   -1730   15433      2.81  0.915   3193   -6.81  CR   
120  264.38   64441  0.849  326.0  274.00  230.00  0.432   13500   -1571   15406      2.85  0.909   3234   -6.69  CR   
140  260.41   59524  0.796  323.5  282.43  230.00  0.449   13500   -1420   15377      2.89  0.903   3276   -6.58  CR   
160  256.45   54915  0.746  321.0  291.22  230.00  0.467   13500   -1273   15350      2.93  0.896   3319   -6.46  CR   
180  252.49   50600  0.698  318.5  300.38  230.00  0.485   13500   -1122   15326      2.96  0.889   3361   -6.34  CR   
200  248.53   46563  0.653  316.0  309.92  230.00  0.505   13500    -953   15304      2.96  0.882   3400   -6.22  CR   
220  244.56   42791  0.610  313.5  319.88  230.00  0.525   13500    -752   15272      2.94  0.874   3428   -6.07  CR   
240  240.60   39271  0.569  311.0  330.26  230.00  0.546   13500    -500   15181      2.88  0.866   3430   -5.89  CR   
250  238.62   37601  0.549  309.7  331.07  226.75  0.550   13500    -290   14785      2.83  1.042   3978   -6.81  CR   


Medium mass DESCENT
===================

 FL    T       p      rho     a      TAS     CAS     M     mass   Thrust    Drag     Fuel    ESF    ROCD   gamma Conf  Lim
[-]   [K]     [Pa]  [kg/m3] [m/s]   [kt]    [kt]    [-]    [kg]     [N]     [N]     [kgm]    [-]   [fpm]   [deg]  [-]     
  0  288.15  101325  1.225  340.3  104.95  104.95  0.159   15905    7773   16051      7.00  0.986    556   -3.00  LD   
  5  287.16   99508  1.207  339.7  105.71  104.95  0.160   15905    7771   16051      6.87  0.986    560   -3.00  LD   
 10  286.17   97717  1.190  339.1  111.56  109.95  0.169   15905    7808   16103      6.69  0.984    591   -3.00  LD   
 15  285.18   95952  1.172  338.5  122.59  119.95  0.186   15905    3425   11747      5.61  0.981    650   -3.00  AP   
 20  284.19   94213  1.155  337.9  154.36  149.95  0.235   15905   -3561   10361      3.17  0.970   1354   -4.97  CR   
 30  282.21   90812  1.121  336.8  229.62  220.00  0.351   15905   -2289   14942      2.93  0.937   2407   -5.94  CR   
 40  280.23   87511  1.088  335.6  232.96  220.00  0.357   15905   -2188   14942      2.88  0.935   2423   -5.89  CR   
 60  276.26   81200  1.024  333.2  250.67  230.00  0.387   15905   -2066   15983      2.79  0.925   2717   -6.14  CR   
 80  272.30   75262  0.963  330.8  258.13  230.00  0.401   15905   -1897   15964      2.78  0.920   2754   -6.05  CR   
100  268.34   69682  0.905  328.4  265.90  230.00  0.417   15905   -1730   15938      2.81  0.915   2790   -5.95  CR   
120  264.38   64441  0.849  326.0  274.00  230.00  0.432   15905   -1571   15907      2.85  0.909   2826   -5.85  CR   
140  260.41   59524  0.796  323.5  282.43  230.00  0.449   15905   -1420   15875      2.89  0.903   2863   -5.75  CR   
160  256.45   54915  0.746  321.0  291.22  230.00  0.467   15905   -1273   15844      2.93  0.896   2901   -5.65  CR   
180  252.49   50600  0.698  318.5  300.38  230.00  0.485   15905   -1122   15817      2.96  0.889   2938   -5.54  CR   
200  248.53   46563  0.653  316.0  309.92  230.00  0.505   15905    -953   15792      2.96  0.882   2972   -5.43  CR   
220  244.56   42791  0.610  313.5  319.88  230.00  0.525   15905    -752   15750      2.94  0.874   2996   -5.31  CR   
240  240.60   39271  0.569  311.0  330.26  230.00  0.546   15905    -500   15635      2.88  0.866   2996   -5.14  CR   
250  238.62   37601  0.549  309.7  331.07  226.75  0.550   15905    -290   15244      2.83  1.042   3479   -5.96  CR   


High mass DESCENT
=================

 FL    T       p      rho     a      TAS     CAS     M     mass   Thrust    Drag     Fuel    ESF    ROCD   gamma Conf  Lim
[-]   [K]     [Pa]  [kg/m3] [m/s]   [kt]    [kt]    [-]    [kg]     [N]     [N]     [kgm]    [-]   [fpm]   [deg]  [-]     
  0  288.15  101325  1.225  340.3  111.03  111.03  0.168   17900    8735   18068      7.09  0.984    588   -3.00  LD   
  5  287.16   99508  1.207  339.7  111.84  111.03  0.169   17900    8733   18068      6.97  0.984    593   -3.00  LD   
 10  286.17   97717  1.190  339.1  117.73  116.03  0.179   17900    8754   18106      6.83  0.982    624   -3.00  LD   
 15  285.18   95952  1.172  338.5  128.81  126.03  0.196   17900    3839   13223      5.61  0.979    683   -3.00  AP   
 20  284.19   94213  1.155  337.9  160.61  156.03  0.244   17900   -3390   11641      3.18  0.968   1348   -4.75  CR   
 30  282.21   90812  1.121  336.8  229.62  220.00  0.351   17900   -2289   15489      2.93  0.937   2207   -5.45  CR   
 40  280.23   87511  1.088  335.6  232.96  220.00  0.357   17900   -2188   15488      2.88  0.935   2221   -5.40  CR   
 60  276.26   81200  1.024  333.2  250.67  230.00  0.387   17900   -2066   16473      2.79  0.925   2480   -5.61  CR   
 80  272.30   75262  0.963  330.8  258.13  230.00  0.401   17900   -1897   16450      2.78  0.920   2513   -5.52  CR   
100  268.34   69682  0.905  328.4  265.90  230.00  0.417   17900   -1730   16420      2.81  0.915   2546   -5.43  CR   
120  264.38   64441  0.849  326.0  274.00  230.00  0.432   17900   -1571   16386      2.85  0.909   2580   -5.33  CR   
140  260.41   59524  0.796  323.5  282.43  230.00  0.449   17900   -1420   16350      2.89  0.903   2614   -5.24  CR   
160  256.45   54915  0.746  321.0  291.22  230.00  0.467   17900   -1273   16316      2.93  0.896   2649   -5.15  CR   
180  252.49   50600  0.698  318.5  300.38  230.00  0.485   17900   -1122   16286      2.96  0.889   2683   -5.06  CR   
200  248.53   46563  0.653  316.0  309.92  230.00  0.505   17900    -953   16256      2.96  0.882   2714   -4.96  CR   
220  244.56   42791  0.610  313.5  319.88  230.00  0.525   17900    -752   16206      2.94  0.874   2736   -4.84  CR   
240  240.60   39271  0.569  311.0  330.26  230.00  0.546   17900    -500   16067      2.88  0.866   2733   -4.69  CR   
250  238.62   37601  0.549  309.7  331.07  226.75  0.550   17900    -290   15683      2.83  1.042   3179   -5.44  CR   


Low mass CRUISE
===============

 FL    T       p      rho     a      TAS     CAS     M     mass   Thrust    Drag     Fuel    ESF    ROCD   gamma Conf  Lim
[-]   [K]     [Pa]  [kg/m3] [m/s]   [kt]    [kt]    [-]    [kg]     [N]     [N]     [kgm]    [-]   [fpm]   [deg]  [-]     
  0  288.15  101325  1.225  340.3  150.00  150.00  0.227   13500    9047    9047      7.18  0.000      0    0.00  CR   
  5  287.16   99508  1.207  339.7  151.09  150.00  0.229   13500    9052    9052      7.10  0.000      0    0.00  CR   
 10  286.17   97717  1.190  339.1  152.18  150.00  0.231   13500    9056    9056      7.03  0.000      0    0.00  CR   
 15  285.18   95952  1.172  338.5  153.29  150.00  0.233   13500    9060    9060      6.95  0.000      0    0.00  CR   
 20  284.19   94213  1.155  337.9  154.41  150.00  0.235   13500    9065    9065      6.88  0.000      0    0.00  CR   
 30  282.21   90812  1.121  336.8  187.97  180.00  0.287   13500   10728   10728      7.97  0.000      0    0.00  CR   
 40  280.23   87511  1.088  335.6  190.73  180.00  0.292   13500   10738   10738      7.89  0.000      0    0.00  CR   
 60  276.26   81200  1.024  333.2  250.67  230.00  0.387   13500   15470   15470     11.49  0.000      0    0.00  CR   
 80  272.30   75262  0.963  330.8  258.13  230.00  0.401   13500   15454   15454     11.44  0.000      0    0.00  CR   
100  268.34   69682  0.905  328.4  243.03  210.00  0.381   13500   13335   13335      9.60  0.000      0    0.00  CR   
120  264.38   64441  0.849  326.0  250.50  210.00  0.395   13500   13321   13321      9.56  0.000      0    0.00  CR   
140  260.41   59524  0.796  323.5  258.28  210.00  0.411   13500   13300   13300      9.55  0.000      0    0.00  CR   
160  256.45   54915  0.746  321.0  266.40  210.00  0.427   13500   13274   13274      9.61  0.000      0    0.00  CR   
180  252.49   50600  0.698  318.5  274.87  210.00  0.444   13500   13246   13246      9.72  0.000      0    0.00  CR   T
200  248.53   46563  0.653  316.0  276.44  204.48  0.450   13500   12702   12702      9.29  0.000      0    0.00  CR   T
220  244.56   42791  0.610  313.5  274.23  196.21  0.450   13500   11949   11949      8.64  0.000      0    0.00  CR   T
240  240.60   39271  0.569  311.0  272.00  188.13  0.450   13500   11272   11272      8.05  0.000      0    0.00  CR   T
250  238.62   37601  0.549  309.7  270.88  184.16  0.450   13500   10961   10961      7.79  0.000      0    0.00  CR   T


Medium mass CRUISE
==================

 FL    T       p      rho     a      TAS     CAS     M     mass   Thrust    Drag     Fuel    ESF    ROCD   gamma Conf  Lim
[-]   [K]     [Pa]  [kg/m3] [m/s]   [kt]    [kt]    [-]    [kg]     [N]     [N]     [kgm]    [-]   [fpm]   [deg]  [-]     
  0  288.15  101325  1.225  340.3  150.00  150.00  0.227   15905   10346   10346      7.55  0.000      0    0.00  CR   
  5  287.16   99508  1.207  339.7  151.09  150.00  0.229   15905   10350   10350      7.48  0.000      0    0.00  CR   
 10  286.17   97717  1.190  339.1  152.18  150.00  0.231   15905   10354   10354      7.41  0.000      0    0.00  CR   
 15  285.18   95952  1.172  338.5  153.29  150.00  0.233   15905   10358   10358      7.34  0.000      0    0.00  CR   
 20  284.19   94213  1.155  337.9  154.41  150.00  0.235   15905   10362   10362      7.27  0.000      0    0.00  CR   
 30  282.21   90812  1.121  336.8  187.97  180.00  0.287   15905   11615   11615      8.29  0.000      0    0.00  CR   
 40  280.23   87511  1.088  335.6  190.73  180.00  0.292   15905   11623   11623      8.21  0.000      0    0.00  CR   
 60  276.26   81200  1.024  333.2  250.67  230.00  0.387   15905   15983   15983     11.71  0.000      0    0.00  CR   
 80  272.30   75262  0.963  330.8  258.13  230.00  0.401   15905   15964   15964     11.68  0.000      0    0.00  CR   
100  268.34   69682  0.905  328.4  243.03  210.00  0.381   15905   13956   13956      9.87  0.000      0    0.00  CR   
120  264.38   64441  0.849  326.0  250.50  210.00  0.395   15905   13937   13937      9.84  0.000      0    0.00  CR   
140  260.41   59524  0.796  323.5  258.28  210.00  0.411   15905   13911   13911      9.86  0.000      0    0.00  CR   
160  256.45   54915  0.746  321.0  266.40  210.00  0.427   15905   13880   13880      9.94  0.000      0    0.00  CR   T
180  252.49   50600  0.698  318.5  274.87  210.00  0.444   15905   13847   13847     10.07  0.000      0    0.00  CR   T
200  248.53   46563  0.653  316.0  276.44  204.48  0.450   15905   13336   13336      9.69  0.000      0    0.00  CR   T
220  244.56   42791  0.610  313.5  274.23  196.21  0.450   15905   12639   12639      9.08  0.000      0    0.00  CR   T
240  240.60   39271  0.569  311.0  272.00  188.13  0.450   15905   12023   12023      8.56  0.000      0    0.00  CR   T
250  238.62   37601  0.549  309.7  270.88  184.16  0.450   15905   11745   11745      8.33  0.000      0    0.00  CR   T


High mass CRUISE
================

 FL    T       p      rho     a      TAS     CAS     M     mass   Thrust    Drag     Fuel    ESF    ROCD   gamma Conf  Lim
[-]   [K]     [Pa]  [kg/m3] [m/s]   [kt]    [kt]    [-]    [kg]     [N]     [N]     [kgm]    [-]   [fpm]   [deg]  [-]     
  0  288.15  101325  1.225  340.3  150.00  150.00  0.227   17900   11584   11584      7.92  0.000      0    0.00  CR   
  5  287.16   99508  1.207  339.7  151.09  150.00  0.229   17900   11588   11588      7.84  0.000      0    0.00  CR   
 10  286.17   97717  1.190  339.1  152.18  150.00  0.231   17900   11592   11592      7.78  0.000      0    0.00  CR   
 15  285.18   95952  1.172  338.5  153.29  150.00  0.233   17900   11596   11596      7.71  0.000      0    0.00  CR   
 20  284.19   94213  1.155  337.9  154.41  150.00  0.235   17900   11599   11599      7.65  0.000      0    0.00  CR   
 30  282.21   90812  1.121  336.8  187.97  180.00  0.287   17900   12461   12461      8.60  0.000      0    0.00  CR   
 40  280.23   87511  1.088  335.6  190.73  180.00  0.292   17900   12468   12468      8.53  0.000      0    0.00  CR   
 60  276.26   81200  1.024  333.2  250.67  230.00  0.387   17900   16473   16473     11.93  0.000      0    0.00  CR   
 80  272.30   75262  0.963  330.8  258.13  230.00  0.401   17900   16450   16450     11.91  0.000      0    0.00  CR   T
100  268.34   69682  0.905  328.4  243.03  210.00  0.381   17900   14549   14549     10.13  0.000      0    0.00  CR   
120  264.38   64441  0.849  326.0  250.50  210.00  0.395   17900   14525   14525     10.11  0.000      0    0.00  CR   
140  260.41   59524  0.796  323.5  258.28  210.00  0.411   17900   14494   14494     10.16  0.000      0    0.00  CR   T
160  256.45   54915  0.746  321.0  266.40  210.00  0.427   17900   14458   14458     10.27  0.000      0    0.00  CR   T
180  252.49   50600  0.698  318.5  274.87  210.00  0.444   17900   14421   14421     10.44  0.000      0    0.00  CR   T
200  248.53   46563  0.653  316.0  276.44  204.48  0.450   17900   13940   13940     10.09  0.000      0    0.00  CR   T
220  244.56   42791  0.610  313.5  274.23  196.21  0.450   17900   13296   13296      9.55  0.000      0    0.00  CR   T
240  240.60   39271  0.569  311.0  272.00  188.13  0.450   17900   12739   12739      9.09  0.000      0    0.00  CR   T
250  238.62   37601  0.549  309.7  270.88  184.16  0.450   17900   12493   12493      8.91  0.000      0    0.00  CR   T
