BADA PERFORMANCE FILE RESULTS
=============================
=============================

Low mass CLIMB
==============

 FL    T       p      rho     a      TAS     CAS     M     mass   Thrust    Drag     Fuel    ESF    ROCD   gamma Conf  Lim
[-]   [K]     [Pa]  [kg/m3] [m/s]   [kt]    [kt]    [-]    [kg]     [N]     [N]     [kgm]    [-]   [fpm]   [deg]  [-]     
  0  308.15  101325  1.145  351.9  127.36  123.15  0.186   13500   28530    9024     12.61  0.981   1743    8.31  TO   
  5  307.16   99508  1.129  351.3  138.71  133.15  0.203   13500   26949    8698     12.58  0.977   1769    7.74  IC   
 10  306.17   97717  1.112  350.8  144.98  138.15  0.213   13500   25939    8753     12.46  0.975   1737    7.27  IC   
 15  305.18   95952  1.095  350.2  179.70  170.00  0.264   13500   21751   10041     12.28  0.962   1447    4.88  IC   
 20  304.19   94213  1.079  349.6  181.03  170.00  0.266   13500   21460   10046     12.15  0.962   1420    4.76  CR   
 30  302.21   90812  1.047  348.5  183.73  170.00  0.271   13500   20878   10056     11.88  0.960   1364    4.50  CR   
 40  300.23   87511  1.015  347.4  186.48  170.00  0.276   13500   20299   10065     11.61  0.959   1307    4.25  CR   
 60  296.26   81200  0.955  345.1  192.17  170.00  0.287   13500   19154   10082     11.08  0.956   1189    3.76  CR   
 80  292.30   75262  0.897  342.7  198.11  170.00  0.297   13500   18030   10097     10.56  0.953   1067    3.27  CR   
100  288.34   69682  0.842  340.4  192.38  160.00  0.291   13500   17775    9553     10.05  0.955   1075    3.40  CR   
120  284.38   64441  0.789  338.1  198.50  160.00  0.302   13500   16649    9563      9.55  0.951    952    2.92  CR   
140  280.41   59524  0.739  335.7  204.91  160.00  0.314   13500   15560    9569      9.07  0.948    826    2.46  CR   
160  276.45   54915  0.692  333.3  211.61  160.00  0.327   13500   14513    9571      8.60  0.944    700    2.02  CR   
180  272.49   50600  0.647  330.9  218.62  160.00  0.340   13500   13511    9568      8.15  0.940    574    1.60  CR   
200  268.53   46563  0.604  328.5  225.96  160.00  0.354   13500   12558    9559      7.73  0.935    449    1.21  CR   
220  264.56   42791  0.563  326.1  233.65  160.00  0.369   13500   11654    9544      7.34  0.930    324    0.85  CR   
240  260.60   39271  0.525  323.6  241.72  160.00  0.384   13500   10802    9522      6.98  0.925    202    0.51  CR   
250  258.62   37601  0.506  322.4  245.89  160.00  0.392   13500   10396    9509      6.81  0.922    142    0.35  CR   


Medium mass CLIMB
=================

 FL    T       p      rho     a      TAS     CAS     M     mass   Thrust    Drag     Fuel    ESF    ROCD   gamma Conf  Lim
[-]   [K]     [Pa]  [kg/m3] [m/s]   [kt]    [kt]    [-]    [kg]     [N]     [N]     [kgm]    [-]   [fpm]   [deg]  [-]     
  0  308.15  101325  1.145  351.9  136.47  131.96  0.200   15905   27289   10600     12.66  0.978   1352    6.01  TO   
  5  307.16   99508  1.129  351.3  147.89  141.96  0.217   15905   25763   10274     12.60  0.974   1354    5.55  IC   
 10  306.17   97717  1.112  350.8  154.23  146.96  0.226   15905   24766   10310     12.46  0.972   1315    5.17  IC   
 15  305.18   95952  1.095  350.2  179.70  170.00  0.264   15905   21751   11043     12.28  0.962   1123    3.79  IC   
 20  304.19   94213  1.079  349.6  181.03  170.00  0.266   15905   21460   11047     12.15  0.962   1099    3.68  CR   
 30  302.21   90812  1.047  348.5  183.73  170.00  0.271   15905   20878   11056     11.88  0.960   1051    3.47  CR   
 40  300.23   87511  1.015  347.4  186.48  170.00  0.276   15905   20299   11064     11.61  0.959   1001    3.25  CR   
 60  296.26   81200  0.955  345.1  192.17  170.00  0.287   15905   19154   11079     11.08  0.956    898    2.84  CR   
 80  292.30   75262  0.897  342.7  198.11  170.00  0.297   15905   18030   11090     10.56  0.953    792    2.43  CR   
100  288.34   69682  0.842  340.4  192.38  160.00  0.291   15905   17775   10679     10.05  0.955    788    2.49  CR   
120  284.38   64441  0.789  338.1  198.50  160.00  0.302   15905   16649   10684      9.55  0.951    680    2.08  CR   
140  280.41   59524  0.739  335.7  204.91  160.00  0.314   15905   15560   10686      9.07  0.948    571    1.70  CR   
160  276.45   54915  0.692  333.3  211.61  160.00  0.327   15905   14513   10682      8.60  0.944    461    1.33  CR   
180  272.49   50600  0.647  330.9  218.62  160.00  0.340   15905   13511   10673      8.15  0.940    351    0.98  CR   
200  268.53   46563  0.604  328.5  225.96  160.00  0.354   15905   12558   10656      7.73  0.935    241    0.65  CR   
220  264.56   42791  0.563  326.1  233.65  160.00  0.369   15905   11654   10632      7.34  0.930    133    0.35  CR   
240  260.60   39271  0.525  323.6  241.72  160.00  0.384   15905   10802   10602      6.98  0.925     27    0.07  CR   
250  258.62   37601  0.506  322.4  245.89  160.00  0.392   15905   10396   10584      6.81  0.922    -26   -0.06  CR   


High mass CLIMB
===============

 FL    T       p      rho     a      TAS     CAS     M     mass   Thrust    Drag     Fuel    ESF    ROCD   gamma Conf  Lim
[-]   [K]     [Pa]  [kg/m3] [m/s]   [kt]    [kt]    [-]    [kg]     [N]     [N]     [kgm]    [-]   [fpm]   [deg]  [-]     
  0  308.15  101325  1.145  351.9  143.52  138.78  0.210   17900   26377   11913     12.68  0.976   1092    4.61  TO   
  5  307.16   99508  1.129  351.3  154.99  148.78  0.227   17900   24862   11589     12.59  0.972   1078    4.21  IC   
 10  306.17   97717  1.112  350.8  161.38  153.78  0.237   17900   23909   11609     12.45  0.969   1037    3.89  IC   
 15  305.18   95952  1.095  350.2  179.70  170.00  0.264   17900   21751   11998     12.28  0.962    909    3.06  IC   
 20  304.19   94213  1.079  349.6  181.03  170.00  0.266   17900   21460   12002     12.15  0.962    887    2.97  CR   
 30  302.21   90812  1.047  348.5  183.73  170.00  0.271   17900   20878   12010     11.88  0.960    843    2.78  CR   
 40  300.23   87511  1.015  347.4  186.48  170.00  0.276   17900   20299   12017     11.61  0.959    797    2.59  CR   
 60  296.26   81200  0.955  345.1  192.17  170.00  0.287   17900   19154   12029     11.08  0.956    704    2.22  CR   
 80  292.30   75262  0.897  342.7  198.11  170.00  0.297   17900   18030   12037     10.56  0.953    608    1.86  CR   
100  288.34   69682  0.842  340.4  192.38  160.00  0.291   17900   17775   11752     10.05  0.955    594    1.88  CR   
120  284.38   64441  0.789  338.1  198.50  160.00  0.302   17900   16649   11754      9.55  0.951    496    1.52  CR   
140  280.41   59524  0.739  335.7  204.91  160.00  0.314   17900   15560   11751      9.07  0.948    396    1.18  CR   
160  276.45   54915  0.692  333.3  211.61  160.00  0.327   17900   14513   11742      8.60  0.944    296    0.85  CR   
180  272.49   50600  0.647  330.9  218.62  160.00  0.340   17900   13511   11726      8.15  0.940    196    0.55  CR   
200  268.53   46563  0.604  328.5  225.96  160.00  0.354   17900   12558   11702      7.73  0.935     97    0.26  CR   
220  264.56   42791  0.563  326.1  233.65  160.00  0.369   17900   11654   11671      7.34  0.930     -2   -0.00  CR   
240  260.60   39271  0.525  323.6  241.72  160.00  0.384   17900   10802   11631      6.98  0.925    -99   -0.25  CR   
250  258.62   37601  0.506  322.4  245.89  160.00  0.392   17900   10396   11608      6.81  0.922   -146   -0.36  CR   


Low mass DESCENT
================

 FL    T       p      rho     a      TAS     CAS     M     mass   Thrust    Drag     Fuel    ESF    ROCD   gamma Conf  Lim
[-]   [K]     [Pa]  [kg/m3] [m/s]   [kt]    [kt]    [-]    [kg]     [N]     [N]     [kgm]    [-]   [fpm]   [deg]  [-]     
  0  308.15  101325  1.145  351.9  100.39   97.08  0.147   13500    6608   13622      7.21  0.988    498   -3.00  LD   
  5  307.16   99508  1.129  351.3  101.14   97.08  0.148   13500    6606   13622      7.07  0.988    501   -3.00  LD   
 10  306.17   97717  1.112  350.8  107.14  102.08  0.157   13500    6664   13691      6.84  0.986    531   -3.00  LD   
 15  305.18   95952  1.095  350.2  118.51  112.08  0.174   13500    2931    9979      5.86  0.983    587   -3.00  AP   
 20  304.19   94213  1.079  349.6  151.33  142.08  0.223   13500   -4759    8835      2.70  0.973   1430   -5.73  CR   
 30  302.21   90812  1.047  348.5  237.62  220.00  0.351   13500   -2872   14368      2.38  0.936   2739   -7.00  CR   
 40  300.23   87511  1.015  347.4  241.13  220.00  0.357   13500   -2750   14370      2.34  0.934   2753   -6.94  CR   
 60  296.26   81200  0.955  345.1  259.59  230.00  0.387   13500   -2549   15470      2.25  0.924   3082   -7.22  CR   
 80  292.30   75262  0.897  342.7  267.44  230.00  0.401   13500   -2357   15454      2.26  0.919   3119   -7.10  CR   
100  288.34   69682  0.842  340.4  275.63  230.00  0.417   13500   -2178   15433      2.30  0.913   3156   -6.98  CR   
120  284.38   64441  0.789  338.1  284.17  230.00  0.432   13500   -2018   15406      2.36  0.907   3195   -6.86  CR   
140  280.41   59524  0.739  335.7  293.08  230.00  0.449   13500   -1878   15377      2.42  0.901   3238   -6.75  CR   
160  276.45   54915  0.692  333.3  302.36  230.00  0.467   13500   -1755   15350      2.47  0.895   3283   -6.64  CR   
180  272.49   50600  0.647  330.9  312.05  230.00  0.485   13500   -1640   15326      2.51  0.888   3331   -6.53  CR   
200  268.53   46563  0.604  328.5  322.15  230.00  0.505   13500   -1524   15304      2.53  0.880   3378   -6.42  CR   
220  264.56   42791  0.563  326.1  332.70  230.00  0.525   13500   -1391   15272      2.52  0.872   3419   -6.30  CR   
240  260.60   39271  0.525  323.6  343.71  230.00  0.546   13500   -1226   15181      2.48  0.864   3439   -6.14  CR   
250  258.62   37601  0.506  322.4  344.67  226.75  0.550   13500   -1075   14785      2.43  1.039   4007   -7.15  CR   


Medium mass DESCENT
===================

 FL    T       p      rho     a      TAS     CAS     M     mass   Thrust    Drag     Fuel    ESF    ROCD   gamma Conf  Lim
[-]   [K]     [Pa]  [kg/m3] [m/s]   [kt]    [kt]    [-]    [kg]     [N]     [N]     [kgm]    [-]   [fpm]   [deg]  [-]     
  0  308.15  101325  1.145  351.9  108.53  104.95  0.159   15905    7771   16051      7.24  0.986    538   -3.00  LD   
  5  307.16   99508  1.129  351.3  109.33  104.95  0.160   15905    7769   16051      7.11  0.986    542   -3.00  LD   
 10  306.17   97717  1.112  350.8  115.39  109.95  0.169   15905    7806   16103      6.92  0.984    572   -3.00  LD   
 15  305.18   95952  1.095  350.2  126.82  119.95  0.186   15905    3423   11747      5.80  0.981    628   -3.00  AP   
 20  304.19   94213  1.079  349.6  159.70  149.95  0.235   15905   -4483   10361      2.70  0.970   1394   -5.30  CR   
 30  302.21   90812  1.047  348.5  237.62  220.00  0.351   15905   -2872   14942      2.38  0.936   2402   -6.14  CR   
 40  300.23   87511  1.015  347.4  241.13  220.00  0.357   15905   -2750   14942      2.34  0.934   2415   -6.08  CR   
 60  296.26   81200  0.955  345.1  259.59  230.00  0.387   15905   -2549   15983      2.25  0.924   2691   -6.30  CR   
 80  292.30   75262  0.897  342.7  267.44  230.00  0.401   15905   -2357   15964      2.26  0.919   2723   -6.20  CR   
100  288.34   69682  0.842  340.4  275.63  230.00  0.417   15905   -2178   15938      2.30  0.913   2756   -6.09  CR   
120  284.38   64441  0.789  338.1  284.17  230.00  0.432   15905   -2018   15907      2.36  0.907   2790   -5.99  CR   
140  280.41   59524  0.739  335.7  293.08  230.00  0.449   15905   -1878   15875      2.42  0.901   2827   -5.89  CR   
160  276.45   54915  0.692  333.3  302.36  230.00  0.467   15905   -1755   15844      2.47  0.895   2867   -5.79  CR   
180  272.49   50600  0.647  330.9  312.05  230.00  0.485   15905   -1640   15817      2.51  0.888   2909   -5.70  CR   
200  268.53   46563  0.604  328.5  322.15  230.00  0.505   15905   -1524   15792      2.53  0.880   2950   -5.61  CR   
220  264.56   42791  0.563  326.1  332.70  230.00  0.525   15905   -1391   15750      2.52  0.872   2985   -5.50  CR   
240  260.60   39271  0.525  323.6  343.71  230.00  0.546   15905   -1226   15635      2.48  0.864   3000   -5.36  CR   
250  258.62   37601  0.506  322.4  344.67  226.75  0.550   15905   -1075   15244      2.43  1.039   3500   -6.24  CR   


High mass DESCENT
=================

 FL    T       p      rho     a      TAS     CAS     M     mass   Thrust    Drag     Fuel    ESF    ROCD   gamma Conf  Lim
[-]   [K]     [Pa]  [kg/m3] [m/s]   [kt]    [kt]    [-]    [kg]     [N]     [N]     [kgm]    [-]   [fpm]   [deg]  [-]     
  0  308.15  101325  1.145  351.9  114.82  111.03  0.168   17900    8733   18068      7.33  0.984    569   -3.00  LD   
  5  307.16   99508  1.129  351.3  115.67  111.03  0.169   17900    8731   18068      7.21  0.984    573   -3.00  LD   
 10  306.17   97717  1.112  350.8  121.77  116.03  0.179   17900    8752   18106      7.06  0.982    603   -3.00  LD   
 15  305.18   95952  1.095  350.2  133.25  126.03  0.196   17900    3836   13223      5.80  0.979    660   -3.00  AP   
 20  304.19   94213  1.079  349.6  166.17  156.03  0.244   17900   -4284   11641      2.70  0.967   1380   -5.03  CR   
 30  302.21   90812  1.047  348.5  237.62  220.00  0.351   17900   -2872   15489      2.38  0.936   2200   -5.62  CR   
 40  300.23   87511  1.015  347.4  241.13  220.00  0.357   17900   -2750   15488      2.34  0.934   2212   -5.57  CR   
 60  296.26   81200  0.955  345.1  259.59  230.00  0.387   17900   -2549   16473      2.25  0.924   2454   -5.75  CR   
 80  292.30   75262  0.897  342.7  267.44  230.00  0.401   17900   -2357   16450      2.26  0.919   2483   -5.65  CR   
100  288.34   69682  0.842  340.4  275.63  230.00  0.417   17900   -2178   16420      2.30  0.913   2514   -5.55  CR   
120  284.38   64441  0.789  338.1  284.17  230.00  0.432   17900   -2018   16386      2.36  0.907   2545   -5.46  CR   
140  280.41   59524  0.739  335.7  293.08  230.00  0.449   17900   -1878   16350      2.42  0.901   2580   -5.37  CR   
160  276.45   54915  0.692  333.3  302.36  230.00  0.467   17900   -1755   16316      2.47  0.895   2616   -5.28  CR   
180  272.49   50600  0.647  330.9  312.05  230.00  0.485   17900   -1640   16286      2.51  0.888   2654   -5.20  CR   
200  268.53   46563  0.604  328.5  322.15  230.00  0.505   17900   -1524   16256      2.53  0.880   2692   -5.11  CR   
220  264.56   42791  0.563  326.1  332.70  230.00  0.525   17900   -1391   16206      2.52  0.872   2723   -5.02  CR   
240  260.60   39271  0.525  323.6  343.71  230.00  0.546   17900   -1226   16067      2.48  0.864   2734   -4.88  CR   
250  258.62   37601  0.506  322.4  344.67  226.75  0.550   17900   -1075   15683      2.43  1.039   3193   -5.69  CR   


Low mass CRUISE
===============

 FL    T       p      rho     a      TAS     CAS     M     mass   Thrust    Drag     Fuel    ESF    ROCD   gamma Conf  Lim
[-]   [K]     [Pa]  [kg/m3] [m/s]   [kt]    [kt]    [-]    [kg]     [N]     [N]     [kgm]    [-]   [fpm]   [deg]  [-]     
  0  308.15  101325  1.145  351.9  155.12  150.00  0.227   13500    9047    9047      7.43  0.000      0    0.00  CR   
  5  307.16   99508  1.129  351.3  156.26  150.00  0.229   13500    9052    9052      7.35  0.000      0    0.00  CR   
 10  306.17   97717  1.112  350.8  157.41  150.00  0.231   13500    9056    9056      7.27  0.000      0    0.00  CR   
 15  305.18   95952  1.095  350.2  158.58  150.00  0.233   13500    9060    9060      7.19  0.000      0    0.00  CR   
 20  304.19   94213  1.079  349.6  159.75  150.00  0.235   13500    9065    9065      7.12  0.000      0    0.00  CR   
 30  302.21   90812  1.047  348.5  194.51  180.00  0.287   13500   10728   10728      8.24  0.000      0    0.00  CR   
 40  300.23   87511  1.015  347.4  197.42  180.00  0.292   13500   10738   10738      8.16  0.000      0    0.00  CR   
 60  296.26   81200  0.955  345.1  259.59  230.00  0.387   13500   15470   15470     11.90  0.000      0    0.00  CR   T
 80  292.30   75262  0.897  342.7  267.44  230.00  0.401   13500   15454   15454     11.86  0.000      0    0.00  CR   T
100  288.34   69682  0.842  340.4  251.93  210.00  0.381   13500   13335   13335      9.95  0.000      0    0.00  CR   T
120  284.38   64441  0.789  338.1  259.80  210.00  0.395   13500   13321   13321      9.91  0.000      0    0.00  CR   T
140  280.41   59524  0.739  335.7  268.02  210.00  0.411   13500   13300   13300      9.91  0.000      0    0.00  CR   T
160  276.45   54915  0.692  333.3  276.59  210.00  0.427   13500   13274   13274      9.98  0.000      0    0.00  CR   T
180  272.49   50600  0.647  330.9  285.55  210.00  0.444   13500   13246   13246     10.09  0.000      0    0.00  CR   T
200  268.53   46563  0.604  328.5  287.35  204.48  0.450   13500   12702   12702      9.66  0.000      0    0.00  CR   T
220  264.56   42791  0.563  326.1  285.22  196.21  0.450   13500   11949   11949      8.98  0.000      0    0.00  CR   T
240  260.60   39271  0.525  323.6  283.08  188.13  0.450   13500   11272   11272      8.38  0.000      0    0.00  CR   T
250  258.62   37601  0.506  322.4  282.00  184.16  0.450   13500   10961   10961      8.11  0.000      0    0.00  CR   T


Medium mass CRUISE
==================

 FL    T       p      rho     a      TAS     CAS     M     mass   Thrust    Drag     Fuel    ESF    ROCD   gamma Conf  Lim
[-]   [K]     [Pa]  [kg/m3] [m/s]   [kt]    [kt]    [-]    [kg]     [N]     [N]     [kgm]    [-]   [fpm]   [deg]  [-]     
  0  308.15  101325  1.145  351.9  155.12  150.00  0.227   15905   10346   10346      7.81  0.000      0    0.00  CR   
  5  307.16   99508  1.129  351.3  156.26  150.00  0.229   15905   10350   10350      7.73  0.000      0    0.00  CR   
 10  306.17   97717  1.112  350.8  157.41  150.00  0.231   15905   10354   10354      7.66  0.000      0    0.00  CR   
 15  305.18   95952  1.095  350.2  158.58  150.00  0.233   15905   10358   10358      7.59  0.000      0    0.00  CR   
 20  304.19   94213  1.079  349.6  159.75  150.00  0.235   15905   10362   10362      7.52  0.000      0    0.00  CR   
 30  302.21   90812  1.047  348.5  194.51  180.00  0.287   15905   11615   11615      8.58  0.000      0    0.00  CR   
 40  300.23   87511  1.015  347.4  197.42  180.00  0.292   15905   11623   11623      8.50  0.000      0    0.00  CR   
 60  296.26   81200  0.955  345.1  259.59  230.00  0.387   15905   15983   15983     12.13  0.000      0    0.00  CR   T
 80  292.30   75262  0.897  342.7  267.44  230.00  0.401   15905   15964   15964     12.10  0.000      0    0.00  CR   T
100  288.34   69682  0.842  340.4  251.93  210.00  0.381   15905   13956   13956     10.23  0.000      0    0.00  CR   T
120  284.38   64441  0.789  338.1  259.80  210.00  0.395   15905   13937   13937     10.20  0.000      0    0.00  CR   T
140  280.41   59524  0.739  335.7  268.02  210.00  0.411   15905   13911   13911     10.23  0.000      0    0.00  CR   T
160  276.45   54915  0.692  333.3  276.59  210.00  0.427   15905   13880   13880     10.32  0.000      0    0.00  CR   T
180  272.49   50600  0.647  330.9  285.55  210.00  0.444   15905   13847   13847     10.47  0.000      0    0.00  CR   T
200  268.53   46563  0.604  328.5  287.35  204.48  0.450   15905   13336   13336     10.07  0.000      0    0.00  CR   T
220  264.56   42791  0.563  326.1  285.22  196.21  0.450   15905   12639   12639      9.45  0.000      0    0.00  CR   T
240  260.60   39271  0.525  323.6  283.08  188.13  0.450   15905   12023   12023      8.91  0.000      0    0.00  CR   T
250  258.62   37601  0.506  322.4  282.00  184.16  0.450   15905   11745   11745      8.67  0.000      0    0.00  CR   T


High mass CRUISE
================

 FL    T       p      rho     a      TAS     CAS     M     mass   Thrust    Drag     Fuel    ESF    ROCD   gamma Conf  Lim
[-]   [K]     [Pa]  [kg/m3] [m/s]   [kt]    [kt]    [-]    [kg]     [N]     [N]     [kgm]    [-]   [fpm]   [deg]  [-]     
  0  308.15  101325  1.145  351.9  155.12  150.00  0.227   17900   11584   11584      8.19  0.000      0    0.00  CR   
  5  307.16   99508  1.129  351.3  156.26  150.00  0.229   17900   11588   11588      8.11  0.000      0    0.00  CR   
 10  306.17   97717  1.112  350.8  157.41  150.00  0.231   17900   11592   11592      8.04  0.000      0    0.00  CR   
 15  305.18   95952  1.095  350.2  158.58  150.00  0.233   17900   11596   11596      7.98  0.000      0    0.00  CR   
 20  304.19   94213  1.079  349.6  159.75  150.00  0.235   17900   11599   11599      7.91  0.000      0    0.00  CR   
 30  302.21   90812  1.047  348.5  194.51  180.00  0.287   17900   12461   12461      8.90  0.000      0    0.00  CR   
 40  300.23   87511  1.015  347.4  197.42  180.00  0.292   17900   12468   12468      8.83  0.000      0    0.00  CR   
 60  296.26   81200  0.955  345.1  259.59  230.00  0.387   17900   16473   16473     12.36  0.000      0    0.00  CR   T
 80  292.30   75262  0.897  342.7  267.44  230.00  0.401   17900   16450   16450     12.34  0.000      0    0.00  CR   T
100  288.34   69682  0.842  340.4  251.93  210.00  0.381   17900   14549   14549     10.50  0.000      0    0.00  CR   T
120  284.38   64441  0.789  338.1  259.80  210.00  0.395   17900   14525   14525     10.49  0.000      0    0.00  CR   T
140  280.41   59524  0.739  335.7  268.02  210.00  0.411   17900   14494   14494     10.54  0.000      0    0.00  CR   T
160  276.45   54915  0.692  333.3  276.59  210.00  0.427   17900   14458   14458     10.66  0.000      0    0.00  CR   T
180  272.49   50600  0.647  330.9  285.55  210.00  0.444   17900   14421   14421     10.84  0.000      0    0.00  CR   T
200  268.53   46563  0.604  328.5  287.35  204.48  0.450   17900   13940   13940     10.49  0.000      0    0.00  CR   T
220  264.56   42791  0.563  326.1  285.22  196.21  0.450   17900   13296   13296      9.93  0.000      0    0.00  CR   T
240  260.60   39271  0.525  323.6  283.08  188.13  0.450   17900   12739   12739      9.46  0.000      0    0.00  CR   T
250  258.62   37601  0.506  322.4  282.00  184.16  0.450   17900   12493   12493      9.27  0.000      0    0.00  CR   T
