BADA PERFORMANCE FILE RESULTS
=============================
=============================

Low mass CLIMB
==============

 FL    T       p      rho     a      TAS     CAS     M     mass   Thrust    Drag     Fuel    ESF    ROCD   gamma Conf  Lim
[-]   [K]     [Pa]  [kg/m3] [m/s]   [kt]    [kt]    [-]    [kg]     [N]     [N]     [kgm]    [-]   [fpm]   [deg]  [-]     
  0  288.15  101325  1.225  340.3  122.72  122.72  0.186   15420   40133    9435     17.51  0.981   2475   11.49  TO   
  5  287.16   99508  1.207  339.7  133.68  132.72  0.202   15420   38123    9547     17.42  0.978   2501   10.65  IC   
 10  286.17   97717  1.190  339.1  139.73  137.72  0.212   15420   37041    9664     17.33  0.975   2499   10.17  IC   
 15  285.18   95952  1.172  338.5  173.71  170.00  0.264   15420   31939   11277     17.00  0.963   2314    7.56  IC   
 20  284.19   94213  1.155  337.9  174.98  170.00  0.266   15420   31728   11280     16.92  0.962   2305    7.48  CR   
 30  282.21   90812  1.121  336.8  177.54  170.00  0.271   15420   31309   11284     16.77  0.961   2288    7.31  CR   
 40  280.23   87511  1.088  335.6  180.16  170.00  0.276   15420   30892   11289     16.63  0.959   2269    7.14  CR   
 60  276.26   81200  1.024  333.2  185.57  170.00  0.287   15420   29254   11298     15.95  0.957   2135    6.52  CR   
 80  272.30   75262  0.963  330.8  191.22  170.00  0.297   15420   27366   11308     15.14  0.953   1961    5.81  CR   
100  268.34   69682  0.905  328.4  197.10  170.00  0.309   15420   25542   11318     14.35  0.950   1784    5.13  CR   
120  264.38   64441  0.849  326.0  203.25  170.00  0.321   15420   23789   11326     13.58  0.946   1606    4.47  CR   
140  260.41   59524  0.796  323.5  209.67  170.00  0.333   15420   22112   11333     12.86  0.943   1427    3.85  CR   
160  256.45   54915  0.746  321.0  216.38  170.00  0.347   15420   20516   11336     12.17  0.938   1248    3.27  CR   
180  252.49   50600  0.698  318.5  223.40  170.00  0.361   15420   19004   11335     11.53  0.934   1071    2.71  CR   
200  248.53   46563  0.653  316.0  230.73  170.00  0.376   15420   17576   11326     10.93  0.929    897    2.20  CR   
220  244.56   42791  0.610  313.5  238.41  170.00  0.391   15420   16234   11308     10.39  0.924    726    1.72  CR   
240  240.60   39271  0.569  311.0  246.44  170.00  0.408   15420   14974   11278      9.89  0.918    560    1.29  CR   
250  238.62   37601  0.549  309.7  250.59  170.00  0.416   15420   14375   11258      9.65  0.915    478    1.08  CR   


Medium mass CLIMB
=================

 FL    T       p      rho     a      TAS     CAS     M     mass   Thrust    Drag     Fuel    ESF    ROCD   gamma Conf  Lim
[-]   [K]     [Pa]  [kg/m3] [m/s]   [kt]    [kt]    [-]    [kg]     [N]     [N]     [kgm]    [-]   [fpm]   [deg]  [-]     
  0  288.15  101325  1.225  340.3  134.78  134.78  0.204   19255   38010   11773     17.48  0.977   1853    7.80  TO   
  5  287.16   99508  1.207  339.7  145.83  144.78  0.221   19255   36121   11956     17.35  0.973   1840    7.16  IC   
 10  286.17   97717  1.190  339.1  151.96  149.78  0.231   19255   35103   12045     17.24  0.971   1825    6.81  IC   
 15  285.18   95952  1.172  338.5  173.71  170.00  0.264   19255   31939   12813     17.00  0.963   1715    5.60  IC   
 20  284.19   94213  1.155  337.9  174.98  170.00  0.266   19255   31728   12817     16.92  0.962   1707    5.53  CR   
 30  282.21   90812  1.121  336.8  177.54  170.00  0.271   19255   31309   12824     16.77  0.961   1691    5.40  CR   
 40  280.23   87511  1.088  335.6  180.16  170.00  0.276   19255   30892   12831     16.63  0.959   1674    5.27  CR   
 60  276.26   81200  1.024  333.2  185.57  170.00  0.287   19255   29254   12843     15.95  0.957   1562    4.77  CR   
 80  272.30   75262  0.963  330.8  191.22  170.00  0.297   19255   27366   12853     15.14  0.953   1419    4.20  CR   
100  268.34   69682  0.905  328.4  197.10  170.00  0.309   19255   25542   12859     14.35  0.950   1274    3.66  CR   
120  264.38   64441  0.849  326.0  203.25  170.00  0.321   19255   23789   12861     13.58  0.946   1127    3.14  CR   
140  260.41   59524  0.796  323.5  209.67  170.00  0.333   19255   22112   12856     12.86  0.943    981    2.65  CR   
160  256.45   54915  0.746  321.0  216.38  170.00  0.347   19255   20516   12844     12.17  0.938    836    2.19  CR   
180  252.49   50600  0.698  318.5  223.40  170.00  0.361   19255   19004   12820     11.53  0.934    692    1.75  CR   
200  248.53   46563  0.653  316.0  230.73  170.00  0.376   19255   17576   12784     10.93  0.929    551    1.35  CR   
220  244.56   42791  0.610  313.5  238.41  170.00  0.391   19255   16234   12733     10.39  0.924    413    0.98  CR   
240  240.60   39271  0.569  311.0  246.44  170.00  0.408   19255   14974   12666      9.89  0.918    280    0.64  CR   
250  238.62   37601  0.549  309.7  250.59  170.00  0.416   19255   14375   12626      9.65  0.915    215    0.49  CR   


High mass CLIMB
===============

 FL    T       p      rho     a      TAS     CAS     M     mass   Thrust    Drag     Fuel    ESF    ROCD   gamma Conf  Lim
[-]   [K]     [Pa]  [kg/m3] [m/s]   [kt]    [kt]    [-]    [kg]     [N]     [N]     [kgm]    [-]   [fpm]   [deg]  [-]     
  0  288.15  101325  1.225  340.3  142.69  142.69  0.216   22000   36691   13458     17.44  0.975   1517    6.02  TO   
  5  287.16   99508  1.207  339.7  153.80  152.69  0.233   22000   34880   13705     17.29  0.971   1484    5.47  IC   
 10  286.17   97717  1.190  339.1  159.98  157.69  0.243   22000   33905   13772     17.17  0.968   1464    5.18  IC   
 15  285.18   95952  1.172  338.5  173.71  170.00  0.264   22000   31939   14121     17.00  0.963   1399    4.56  IC   
 20  284.19   94213  1.155  337.9  174.98  170.00  0.266   22000   31728   14126     16.92  0.962   1391    4.50  CR   
 30  282.21   90812  1.121  336.8  177.54  170.00  0.271   22000   31309   14135     16.77  0.961   1375    4.39  CR   
 40  280.23   87511  1.088  335.6  180.16  170.00  0.276   22000   30892   14144     16.63  0.959   1359    4.27  CR   
 60  276.26   81200  1.024  333.2  185.57  170.00  0.287   22000   29254   14158     15.95  0.957   1258    3.84  CR   
 80  272.30   75262  0.963  330.8  191.22  170.00  0.297   22000   27366   14168     15.14  0.953   1129    3.34  CR   
100  268.34   69682  0.905  328.4  197.10  170.00  0.309   22000   25542   14172     14.35  0.950    999    2.87  CR   
120  264.38   64441  0.849  326.0  203.25  170.00  0.321   22000   23789   14168     13.58  0.946    869    2.42  CR   
140  260.41   59524  0.796  323.5  209.67  170.00  0.333   22000   22112   14154     12.86  0.943    738    1.99  CR   
160  256.45   54915  0.746  321.0  216.38  170.00  0.347   22000   20516   14127     12.17  0.938    609    1.59  CR   
180  252.49   50600  0.698  318.5  223.40  170.00  0.361   22000   19004   14085     11.53  0.934    482    1.22  CR   
200  248.53   46563  0.653  316.0  230.73  170.00  0.376   22000   17576   14026     10.93  0.929    357    0.88  CR   
220  244.56   42791  0.610  313.5  238.41  170.00  0.391   22000   16234   13947     10.39  0.924    236    0.56  CR   
240  240.60   39271  0.569  311.0  246.44  170.00  0.408   22000   14974   13847      9.89  0.918    120    0.27  CR   
250  238.62   37601  0.549  309.7  250.59  170.00  0.416   22000   14375   13790      9.65  0.915     63    0.14  CR   


Low mass DESCENT
================

 FL    T       p      rho     a      TAS     CAS     M     mass   Thrust    Drag     Fuel    ESF    ROCD   gamma Conf  Lim
[-]   [K]     [Pa]  [kg/m3] [m/s]   [kt]    [kt]    [-]    [kg]     [N]     [N]     [kgm]    [-]   [fpm]   [deg]  [-]     
  0  288.15  101325  1.225  340.3   98.19   98.19  0.148   15420    7153   15166      8.18  0.988    520   -3.00  LD   
  5  287.16   99508  1.207  339.7   98.91   98.19  0.150   15420    7152   15166      8.02  0.988    524   -3.00  LD   
 10  286.17   97717  1.190  339.1  104.70  103.19  0.159   15420    7293   15320      7.80  0.986    555   -3.00  LD   
 15  285.18   95952  1.172  338.5  115.69  113.19  0.176   15420    1527    9578      6.30  0.983    613   -3.00  AP   
 20  284.19   94213  1.155  337.9  147.41  143.19  0.224   15420   -5219    9842      3.62  0.973   1446   -5.56  CR   
 30  282.21   90812  1.121  336.8  229.62  220.00  0.351   15420   -2535   16236      3.53  0.937   2705   -6.68  CR   
 40  280.23   87511  1.088  335.6  232.96  220.00  0.357   15420   -2300   16254      3.50  0.935   2706   -6.59  CR   
 60  276.26   81200  1.024  333.2  250.67  230.00  0.387   15420   -1993   17617      3.51  0.925   3045   -6.89  CR   
 80  272.30   75262  0.963  330.8  258.13  230.00  0.401   15420   -1820   17651      3.42  0.920   3096   -6.80  CR   
100  268.34   69682  0.905  328.4  265.90  230.00  0.417   15420   -1721   17672      3.31  0.915   3158   -6.74  CR   
120  264.38   64441  0.849  326.0  274.00  230.00  0.432   15420   -1664   17674      3.21  0.909   3225   -6.67  CR   
140  260.41   59524  0.796  323.5  282.43  230.00  0.449   15420   -1623   17649      3.10  0.903   3291   -6.61  CR   
160  256.45   54915  0.746  321.0  291.22  230.00  0.467   15420   -1578   17594      3.01  0.896   3351   -6.53  CR   
180  252.49   50600  0.698  318.5  300.38  230.00  0.485   15420   -1510   17509      2.93  0.889   3403   -6.42  CR   
200  248.53   46563  0.653  316.0  309.92  230.00  0.505   15420   -1406   17409      2.88  0.882   3444   -6.30  CR   
220  244.56   42791  0.610  313.5  319.88  230.00  0.525   15420   -1251   17342      2.87  0.874   3482   -6.17  CR   
240  240.60   39271  0.569  311.0  330.26  230.00  0.546   15420   -1033   17407      2.91  0.866   3531   -6.06  CR   
250  238.62   37601  0.549  309.7  331.07  226.75  0.550   15420    -768   16999      2.97  1.042   4105   -7.03  CR   


Medium mass DESCENT
===================

 FL    T       p      rho     a      TAS     CAS     M     mass   Thrust    Drag     Fuel    ESF    ROCD   gamma Conf  Lim
[-]   [K]     [Pa]  [kg/m3] [m/s]   [kt]    [kt]    [-]    [kg]     [N]     [N]     [kgm]    [-]   [fpm]   [deg]  [-]     
  0  288.15  101325  1.225  340.3  109.14  109.14  0.165   19255    8900   18934      8.31  0.985    578   -3.00  LD   
  5  287.16   99508  1.207  339.7  109.93  109.14  0.166   19255    8898   18934      8.16  0.985    583   -3.00  LD   
 10  286.17   97717  1.190  339.1  115.81  114.14  0.176   19255    9013   19066      8.00  0.983    614   -3.00  LD   
 15  285.18   95952  1.172  338.5  126.87  124.14  0.193   19255    9867   19955      8.03  0.980    672   -3.00  LD   
 20  284.19   94213  1.155  337.9  158.66  154.14  0.242   19255   -4690   12165      3.52  0.969   1389   -4.96  CR   
 30  282.21   90812  1.121  336.8  229.62  220.00  0.351   19255   -2535   17123      3.53  0.937   2268   -5.60  CR   
 40  280.23   87511  1.088  335.6  232.96  220.00  0.357   19255   -2300   17135      3.50  0.935   2270   -5.52  CR   
 60  276.26   81200  1.024  333.2  250.67  230.00  0.387   19255   -1993   18390      3.51  0.925   2535   -5.73  CR   
 80  272.30   75262  0.963  330.8  258.13  230.00  0.401   19255   -1820   18406      3.42  0.920   2576   -5.66  CR   
100  268.34   69682  0.905  328.4  265.90  230.00  0.417   19255   -1721   18408      3.31  0.915   2625   -5.60  CR   
120  264.38   64441  0.849  326.0  274.00  230.00  0.432   19255   -1664   18391      3.21  0.909   2679   -5.54  CR   
140  260.41   59524  0.796  323.5  282.43  230.00  0.449   19255   -1623   18348      3.10  0.903   2731   -5.48  CR   
160  256.45   54915  0.746  321.0  291.22  230.00  0.467   19255   -1578   18277      3.01  0.896   2779   -5.41  CR   
180  252.49   50600  0.698  318.5  300.38  230.00  0.485   19255   -1510   18180      2.93  0.889   2821   -5.32  CR   
200  248.53   46563  0.653  316.0  309.92  230.00  0.505   19255   -1406   18072      2.88  0.882   2856   -5.22  CR   
220  244.56   42791  0.610  313.5  319.88  230.00  0.525   19255   -1251   17988      2.87  0.874   2885   -5.11  CR   
240  240.60   39271  0.569  311.0  330.26  230.00  0.546   19255   -1033   17993      2.91  0.866   2918   -5.00  CR   
250  238.62   37601  0.549  309.7  331.07  226.75  0.550   19255    -768   17581      2.97  1.042   3395   -5.81  CR   


High mass DESCENT
=================

 FL    T       p      rho     a      TAS     CAS     M     mass   Thrust    Drag     Fuel    ESF    ROCD   gamma Conf  Lim
[-]   [K]     [Pa]  [kg/m3] [m/s]   [kt]    [kt]    [-]    [kg]     [N]     [N]     [kgm]    [-]   [fpm]   [deg]  [-]     
  0  288.15  101325  1.225  340.3  116.31  116.31  0.176   22000   10145   21633      8.50  0.983    616   -3.00  LD   
  5  287.16   99508  1.207  339.7  117.16  116.31  0.177   22000   10142   21633      8.36  0.983    621   -3.00  LD   
 10  286.17   97717  1.190  339.1  123.09  121.31  0.187   22000   10238   21750      8.24  0.981    652   -3.00  LD   
 15  285.18   95952  1.172  338.5  134.20  131.31  0.204   22000   11067   22621      8.36  0.977    711   -3.00  LD   
 20  284.19   94213  1.155  337.9  166.04  161.31  0.253   22000   -4377   13858      3.47  0.966   1373   -4.68  CR   
 30  282.21   90812  1.121  336.8  229.62  220.00  0.351   22000   -2535   17878      3.53  0.937   2062   -5.09  CR   
 40  280.23   87511  1.088  335.6  232.96  220.00  0.357   22000   -2300   17885      3.50  0.935   2064   -5.02  CR   
 60  276.26   81200  1.024  333.2  250.67  230.00  0.387   22000   -1993   19048      3.51  0.925   2290   -5.18  CR   
 80  272.30   75262  0.963  330.8  258.13  230.00  0.401   22000   -1820   19050      3.42  0.920   2326   -5.11  CR   
100  268.34   69682  0.905  328.4  265.90  230.00  0.417   22000   -1721   19036      3.31  0.915   2369   -5.05  CR   
120  264.38   64441  0.849  326.0  274.00  230.00  0.432   22000   -1664   19001      3.21  0.909   2416   -4.99  CR   
140  260.41   59524  0.796  323.5  282.43  230.00  0.449   22000   -1623   18943      3.10  0.903   2462   -4.94  CR   
160  256.45   54915  0.746  321.0  291.22  230.00  0.467   22000   -1578   18859      3.01  0.896   2504   -4.87  CR   
180  252.49   50600  0.698  318.5  300.38  230.00  0.485   22000   -1510   18752      2.93  0.889   2541   -4.79  CR   
200  248.53   46563  0.653  316.0  309.92  230.00  0.505   22000   -1406   18637      2.88  0.882   2572   -4.70  CR   
220  244.56   42791  0.610  313.5  319.88  230.00  0.525   22000   -1251   18539      2.87  0.874   2598   -4.60  CR   
240  240.60   39271  0.569  311.0  330.26  230.00  0.546   22000   -1033   18492      2.91  0.866   2621   -4.49  CR   
250  238.62   37601  0.549  309.7  331.07  226.75  0.550   22000    -768   18078      2.97  1.042   3052   -5.22  CR   


Low mass CRUISE
===============

 FL    T       p      rho     a      TAS     CAS     M     mass   Thrust    Drag     Fuel    ESF    ROCD   gamma Conf  Lim
[-]   [K]     [Pa]  [kg/m3] [m/s]   [kt]    [kt]    [-]    [kg]     [N]     [N]     [kgm]    [-]   [fpm]   [deg]  [-]     
  0  288.15  101325  1.225  340.3  150.00  150.00  0.227   15420   10102   10102      8.58  0.000      0    0.00  CR   
  5  287.16   99508  1.207  339.7  151.09  150.00  0.229   15420   10105   10105      8.48  0.000      0    0.00  CR   
 10  286.17   97717  1.190  339.1  152.18  150.00  0.231   15420   10109   10109      8.39  0.000      0    0.00  CR   
 15  285.18   95952  1.172  338.5  153.29  150.00  0.233   15420   10112   10112      8.29  0.000      0    0.00  CR   
 20  284.19   94213  1.155  337.9  154.41  150.00  0.235   15420   10116   10116      8.21  0.000      0    0.00  CR   
 30  282.21   90812  1.121  336.8  187.97  180.00  0.287   15420   12049   12049      9.43  0.000      0    0.00  CR   
 40  280.23   87511  1.088  335.6  190.73  180.00  0.292   15420   12054   12054      9.32  0.000      0    0.00  CR   
 60  276.26   81200  1.024  333.2  250.67  230.00  0.387   15420   17617   17617     13.33  0.000      0    0.00  CR   
 80  272.30   75262  0.963  330.8  258.13  230.00  0.401   15420   17651   17651     13.17  0.000      0    0.00  CR   
100  268.34   69682  0.905  328.4  254.48  220.00  0.399   15420   16351   16351     12.05  0.000      0    0.00  CR   
120  264.38   64441  0.849  326.0  262.26  220.00  0.414   15420   16367   16367     11.94  0.000      0    0.00  CR   
140  260.41   59524  0.796  323.5  270.37  220.00  0.430   15420   16366   16366     11.87  0.000      0    0.00  CR   
160  256.45   54915  0.746  321.0  278.83  220.00  0.447   15420   16341   16341     11.87  0.000      0    0.00  CR   
180  252.49   50600  0.698  318.5  278.64  212.95  0.450   15420   15459   15459     11.16  0.000      0    0.00  CR   
200  248.53   46563  0.653  316.0  276.44  204.48  0.450   15420   14469   14469     10.35  0.000      0    0.00  CR   
220  244.56   42791  0.610  313.5  274.23  196.21  0.450   15420   13566   13566      9.63  0.000      0    0.00  CR   
240  240.60   39271  0.569  311.0  272.00  188.13  0.450   15420   12747   12747      8.97  0.000      0    0.00  CR   
250  238.62   37601  0.549  309.7  270.88  184.16  0.450   15420   12369   12369      8.68  0.000      0    0.00  CR   


Medium mass CRUISE
==================

 FL    T       p      rho     a      TAS     CAS     M     mass   Thrust    Drag     Fuel    ESF    ROCD   gamma Conf  Lim
[-]   [K]     [Pa]  [kg/m3] [m/s]   [kt]    [kt]    [-]    [kg]     [N]     [N]     [kgm]    [-]   [fpm]   [deg]  [-]     
  0  288.15  101325  1.225  340.3  150.00  150.00  0.227   19255   12037   12037      9.15  0.000      0    0.00  CR   
  5  287.16   99508  1.207  339.7  151.09  150.00  0.229   19255   12043   12043      9.05  0.000      0    0.00  CR   
 10  286.17   97717  1.190  339.1  152.18  150.00  0.231   19255   12050   12050      8.96  0.000      0    0.00  CR   
 15  285.18   95952  1.172  338.5  153.29  150.00  0.233   19255   12056   12056      8.88  0.000      0    0.00  CR   
 20  284.19   94213  1.155  337.9  154.41  150.00  0.235   19255   12063   12063      8.80  0.000      0    0.00  CR   
 30  282.21   90812  1.121  336.8  187.97  180.00  0.287   19255   13424   13424      9.94  0.000      0    0.00  CR   
 40  280.23   87511  1.088  335.6  190.73  180.00  0.292   19255   13429   13429      9.83  0.000      0    0.00  CR   
 60  276.26   81200  1.024  333.2  250.67  230.00  0.387   19255   18390   18390     13.67  0.000      0    0.00  CR   
 80  272.30   75262  0.963  330.8  258.13  230.00  0.401   19255   18406   18406     13.52  0.000      0    0.00  CR   
100  268.34   69682  0.905  328.4  254.48  220.00  0.399   19255   17183   17183     12.44  0.000      0    0.00  CR   
120  264.38   64441  0.849  326.0  262.26  220.00  0.414   19255   17178   17178     12.34  0.000      0    0.00  CR   
140  260.41   59524  0.796  323.5  270.37  220.00  0.430   19255   17155   17155     12.31  0.000      0    0.00  CR   
160  256.45   54915  0.746  321.0  278.83  220.00  0.447   19255   17109   17109     12.38  0.000      0    0.00  CR   
180  252.49   50600  0.698  318.5  278.64  212.95  0.450   19255   16277   16277     11.73  0.000      0    0.00  CR   
200  248.53   46563  0.653  316.0  276.44  204.48  0.450   19255   15358   15358     11.00  0.000      0    0.00  CR   
220  244.56   42791  0.610  313.5  274.23  196.21  0.450   19255   14533   14533     10.35  0.000      0    0.00  CR   
240  240.60   39271  0.569  311.0  272.00  188.13  0.450   19255   13800   13800      9.80  0.000      0    0.00  CR   
250  238.62   37601  0.549  309.7  270.88  184.16  0.450   19255   13469   13469      9.56  0.000      0    0.00  CR   


High mass CRUISE
================

 FL    T       p      rho     a      TAS     CAS     M     mass   Thrust    Drag     Fuel    ESF    ROCD   gamma Conf  Lim
[-]   [K]     [Pa]  [kg/m3] [m/s]   [kt]    [kt]    [-]    [kg]     [N]     [N]     [kgm]    [-]   [fpm]   [deg]  [-]     
  0  288.15  101325  1.225  340.3  150.00  150.00  0.227   22000   13684   13684      9.63  0.000      0    0.00  CR   
  5  287.16   99508  1.207  339.7  151.09  150.00  0.229   22000   13693   13693      9.55  0.000      0    0.00  CR   
 10  286.17   97717  1.190  339.1  152.18  150.00  0.231   22000   13702   13702      9.46  0.000      0    0.00  CR   
 15  285.18   95952  1.172  338.5  153.29  150.00  0.233   22000   13712   13712      9.38  0.000      0    0.00  CR   
 20  284.19   94213  1.155  337.9  154.41  150.00  0.235   22000   13721   13721      9.31  0.000      0    0.00  CR   
 30  282.21   90812  1.121  336.8  187.97  180.00  0.287   22000   14595   14595     10.37  0.000      0    0.00  CR   
 40  280.23   87511  1.088  335.6  190.73  180.00  0.292   22000   14601   14601     10.27  0.000      0    0.00  CR   
 60  276.26   81200  1.024  333.2  250.67  230.00  0.387   22000   19048   19048     13.96  0.000      0    0.00  CR   
 80  272.30   75262  0.963  330.8  258.13  230.00  0.401   22000   19050   19050     13.83  0.000      0    0.00  CR   
100  268.34   69682  0.905  328.4  254.48  220.00  0.399   22000   17891   17891     12.77  0.000      0    0.00  CR   
120  264.38   64441  0.849  326.0  262.26  220.00  0.414   22000   17868   17868     12.70  0.000      0    0.00  CR   
140  260.41   59524  0.796  323.5  270.37  220.00  0.430   22000   17827   17827     12.71  0.000      0    0.00  CR   
160  256.45   54915  0.746  321.0  278.83  220.00  0.447   22000   17763   17763     12.85  0.000      0    0.00  CR   T
180  252.49   50600  0.698  318.5  278.64  212.95  0.450   22000   16973   16973     12.26  0.000      0    0.00  CR   T
200  248.53   46563  0.653  316.0  276.44  204.48  0.450   22000   16114   16114     11.60  0.000      0    0.00  CR   T
220  244.56   42791  0.610  313.5  274.23  196.21  0.450   22000   15356   15356     11.04  0.000      0    0.00  CR   T
240  240.60   39271  0.569  311.0  272.00  188.13  0.450   22000   14697   14697     10.60  0.000      0    0.00  CR   T
250  238.62   37601  0.549  309.7  270.88  184.16  0.450   22000   14406   14406     10.43  0.000      0    0.00  CR   T
