BADA PERFORMANCE FILE RESULTS
=============================
=============================

Low mass CLIMB
==============

 FL    T       p      rho     a      TAS     CAS     M     mass   Thrust    Drag     Fuel    ESF    ROCD   gamma Conf  Lim
[-]   [K]     [Pa]  [kg/m3] [m/s]   [kt]    [kt]    [-]    [kg]     [N]     [N]     [kgm]    [-]   [fpm]   [deg]  [-]     
  0  288.15  101325  1.225  340.3  122.12  122.12  0.185   14760   38768    9968     16.68  0.981   2415   11.26  TO   
  5  287.16   99508  1.207  339.7  133.08  132.12  0.202   14760   36795    8914     16.54  0.978   2538   10.86  IC   
 10  286.17   97717  1.190  339.1  139.12  137.12  0.211   14760   35734    9036     16.43  0.976   2536   10.37  IC   
 15  285.18   95952  1.172  338.5  173.71  170.00  0.264   14760   30660   10697     16.10  0.963   2336    7.63  IC   
 20  284.19   94213  1.155  337.9  174.98  170.00  0.266   14760   30457   10701     16.02  0.962   2327    7.55  CR   
 30  282.21   90812  1.121  336.8  177.54  170.00  0.271   14760   30053   10710     15.88  0.961   2309    7.38  CR   
 40  280.23   87511  1.088  335.6  180.16  170.00  0.276   14760   29651   10719     15.74  0.959   2290    7.21  CR   
 60  276.26   81200  1.024  333.2  185.57  170.00  0.287   14760   28318   10736     15.20  0.957   2184    6.67  CR   
 80  272.30   75262  0.963  330.8  191.22  170.00  0.297   14760   26453   10752     14.40  0.953   2003    5.94  CR   
100  268.34   69682  0.905  328.4  197.10  170.00  0.309   14760   24655   10767     13.63  0.950   1820    5.23  CR   
120  264.38   64441  0.849  326.0  203.25  170.00  0.321   14760   22929   10779     12.88  0.946   1635    4.56  CR   
140  260.41   59524  0.796  323.5  209.67  170.00  0.333   14760   21278   10787     12.15  0.943   1451    3.92  CR   
160  256.45   54915  0.746  321.0  216.38  170.00  0.347   14760   19705   10790     11.47  0.938   1266    3.31  CR   
180  252.49   50600  0.698  318.5  223.40  170.00  0.361   14760   18211   10786     10.82  0.934   1084    2.75  CR   
200  248.53   46563  0.653  316.0  230.73  170.00  0.376   14760   16797   10773     10.21  0.929    903    2.22  CR   
220  244.56   42791  0.610  313.5  238.41  170.00  0.391   14760   15461   10751      9.63  0.924    726    1.72  CR   
240  240.60   39271  0.569  311.0  246.44  170.00  0.408   14760   14203   10716      9.10  0.918    552    1.27  CR   
250  238.62   37601  0.549  309.7  250.59  170.00  0.416   14760   13603   10695      8.84  0.915    466    1.05  CR   


Medium mass CLIMB
=================

 FL    T       p      rho     a      TAS     CAS     M     mass   Thrust    Drag     Fuel    ESF    ROCD   gamma Conf  Lim
[-]   [K]     [Pa]  [kg/m3] [m/s]   [kt]    [kt]    [-]    [kg]     [N]     [N]     [kgm]    [-]   [fpm]   [deg]  [-]     
  0  288.15  101325  1.225  340.3  135.07  135.07  0.204   18740   36532   12527     16.58  0.977   1746    7.33  TO   
  5  287.16   99508  1.207  339.7  146.12  145.07  0.221   18740   34689   11363     16.43  0.973   1828    7.10  IC   
 10  286.17   97717  1.190  339.1  152.26  150.07  0.231   18740   33699   11458     16.31  0.971   1812    6.75  IC   
 15  285.18   95952  1.172  338.5  173.71  170.00  0.264   18740   30660   12224     16.10  0.963   1699    5.54  IC   
 20  284.19   94213  1.155  337.9  174.98  170.00  0.266   18740   30457   12229     16.02  0.962   1691    5.48  CR   
 30  282.21   90812  1.121  336.8  177.54  170.00  0.271   18740   30053   12238     15.88  0.961   1675    5.34  CR   
 40  280.23   87511  1.088  335.6  180.16  170.00  0.276   18740   29651   12247     15.74  0.959   1658    5.21  CR   
 60  276.26   81200  1.024  333.2  185.57  170.00  0.287   18740   28318   12262     15.20  0.957   1571    4.79  CR   
 80  272.30   75262  0.963  330.8  191.22  170.00  0.297   18740   26453   12272     14.40  0.953   1425    4.22  CR   
100  268.34   69682  0.905  328.4  197.10  170.00  0.309   18740   24655   12277     13.63  0.950   1277    3.67  CR   
120  264.38   64441  0.849  326.0  203.25  170.00  0.321   18740   22929   12275     12.88  0.946   1129    3.15  CR   
140  260.41   59524  0.796  323.5  209.67  170.00  0.333   18740   21278   12264     12.15  0.943    982    2.65  CR   
160  256.45   54915  0.746  321.0  216.38  170.00  0.347   18740   19705   12243     11.47  0.938    835    2.18  CR   
180  252.49   50600  0.698  318.5  223.40  170.00  0.361   18740   18211   12209     10.82  0.934    690    1.75  CR   
200  248.53   46563  0.653  316.0  230.73  170.00  0.376   18740   16797   12161     10.21  0.929    547    1.34  CR   
220  244.56   42791  0.610  313.5  238.41  170.00  0.391   18740   15461   12098      9.63  0.924    408    0.97  CR   
240  240.60   39271  0.569  311.0  246.44  170.00  0.408   18740   14203   12022      9.10  0.918    272    0.62  CR   
250  238.62   37601  0.549  309.7  250.59  170.00  0.416   18740   13603   11980      8.84  0.915    205    0.46  CR   


High mass CLIMB
===============

 FL    T       p      rho     a      TAS     CAS     M     mass   Thrust    Drag     Fuel    ESF    ROCD   gamma Conf  Lim
[-]   [K]     [Pa]  [kg/m3] [m/s]   [kt]    [kt]    [-]    [kg]     [N]     [N]     [kgm]    [-]   [fpm]   [deg]  [-]     
  0  288.15  101325  1.225  340.3  143.25  143.25  0.217   21500   35200   14305     16.51  0.974   1401    5.54  TO   
  5  287.16   99508  1.207  339.7  154.36  153.25  0.234   21500   33439   13083     16.35  0.970   1465    5.38  IC   
 10  286.17   97717  1.190  339.1  160.55  158.25  0.244   21500   32492   13157     16.24  0.968   1443    5.09  IC   
 15  285.18   95952  1.172  338.5  173.71  170.00  0.264   21500   30660   13496     16.10  0.963   1379    4.50  IC   
 20  284.19   94213  1.155  337.9  174.98  170.00  0.266   21500   30457   13502     16.02  0.962   1371    4.44  CR   
 30  282.21   90812  1.121  336.8  177.54  170.00  0.271   21500   30053   13511     15.88  0.961   1355    4.32  CR   
 40  280.23   87511  1.088  335.6  180.16  170.00  0.276   21500   29651   13520     15.74  0.959   1339    4.21  CR   
 60  276.26   81200  1.024  333.2  185.57  170.00  0.287   21500   28318   13533     15.20  0.957   1261    3.85  CR   
 80  272.30   75262  0.963  330.8  191.22  170.00  0.297   21500   26453   13538     14.40  0.953   1131    3.35  CR   
100  268.34   69682  0.905  328.4  197.10  170.00  0.309   21500   24655   13535     13.63  0.950   1000    2.87  CR   
120  264.38   64441  0.849  326.0  203.25  170.00  0.321   21500   22929   13522     12.88  0.946    869    2.42  CR   
140  260.41   59524  0.796  323.5  209.67  170.00  0.333   21500   21278   13495     12.15  0.943    739    1.99  CR   
160  256.45   54915  0.746  321.0  216.38  170.00  0.347   21500   19705   13453     11.47  0.938    610    1.59  CR   
180  252.49   50600  0.698  318.5  223.40  170.00  0.361   21500   18211   13394     10.82  0.934    483    1.22  CR   
200  248.53   46563  0.653  316.0  230.73  170.00  0.376   21500   16797   13316     10.21  0.929    358    0.88  CR   
220  244.56   42791  0.610  313.5  238.41  170.00  0.391   21500   15461   13221      9.63  0.924    237    0.56  CR   
240  240.60   39271  0.569  311.0  246.44  170.00  0.408   21500   14203   13110      9.10  0.918    119    0.27  CR   
250  238.62   37601  0.549  309.7  250.59  170.00  0.416   21500   13603   13051      8.84  0.915     61    0.14  CR   


Low mass DESCENT
================

 FL    T       p      rho     a      TAS     CAS     M     mass   Thrust    Drag     Fuel    ESF    ROCD   gamma Conf  Lim
[-]   [K]     [Pa]  [kg/m3] [m/s]   [kt]    [kt]    [-]    [kg]     [N]     [N]     [kgm]    [-]   [fpm]   [deg]  [-]     
  0  288.15  101325  1.225  340.3   99.64   99.64  0.151   14760    5523   13195      5.95  0.987    528   -3.00  LD   
  5  287.16   99508  1.207  339.7  100.37   99.64  0.152   14760    5521   13195      5.86  0.987    532   -3.00  LD   
 10  286.17   97717  1.190  339.1  106.18  104.64  0.161   14760    5727   13413      5.89  0.986    563   -3.00  LD   
 15  285.18   95952  1.172  338.5  117.17  114.64  0.178   14760    1995    9705      5.09  0.983    621   -3.00  AP   
 20  284.19   94213  1.155  337.9  148.90  144.64  0.227   14760   -6083    9295      3.49  0.972   1557   -5.93  CR   
 30  282.21   90812  1.121  336.8  229.62  220.00  0.351   14760   -3629   15668      3.99  0.937   2905   -7.18  CR   
 40  280.23   87511  1.088  335.6  232.96  220.00  0.357   14760   -3522   15689      3.86  0.935   2928   -7.13  CR   
 60  276.26   81200  1.024  333.2  250.67  230.00  0.387   14760   -3390   17039      3.60  0.925   3314   -7.50  CR   
 80  272.30   75262  0.963  330.8  258.13  230.00  0.401   14760   -3293   17068      3.35  0.920   3383   -7.44  CR   
100  268.34   69682  0.905  328.4  265.90  230.00  0.417   14760   -3215   17081      3.12  0.915   3453   -7.37  CR   
120  264.38   64441  0.849  326.0  274.00  230.00  0.432   14760   -3149   17072      2.93  0.909   3523   -7.29  CR   
140  260.41   59524  0.796  323.5  282.43  230.00  0.449   14760   -3088   17036      2.75  0.903   3590   -7.21  CR   
160  256.45   54915  0.746  321.0  291.22  230.00  0.467   14760   -3026   16972      2.61  0.896   3652   -7.11  CR   
180  252.49   50600  0.698  318.5  300.38  230.00  0.485   14760   -2959   16887      2.50  0.889   3709   -7.00  CR   
200  248.53   46563  0.653  316.0  309.92  230.00  0.505   14760   -2884   16802      2.41  0.882   3765   -6.89  CR   
220  244.56   42791  0.610  313.5  319.88  230.00  0.525   14760   -2799   16766      2.34  0.874   3828   -6.79  CR   
240  240.60   39271  0.569  311.0  330.26  230.00  0.546   14760   -2701   16873      2.30  0.866   3916   -6.72  CR   
250  238.62   37601  0.549  309.7  331.07  226.75  0.550   14760   -2490   16465      2.29  1.042   4575   -7.84  CR   


Medium mass DESCENT
===================

 FL    T       p      rho     a      TAS     CAS     M     mass   Thrust    Drag     Fuel    ESF    ROCD   gamma Conf  Lim
[-]   [K]     [Pa]  [kg/m3] [m/s]   [kt]    [kt]    [-]    [kg]     [N]     [N]     [kgm]    [-]   [fpm]   [deg]  [-]     
  0  288.15  101325  1.225  340.3  111.64  111.64  0.169   18740    6966   16738      6.42  0.984    592   -3.00  LD   
  5  287.16   99508  1.207  339.7  112.46  111.64  0.170   18740    6963   16737      6.34  0.984    596   -3.00  LD   
 10  286.17   97717  1.190  339.1  118.35  116.64  0.180   18740    7155   16947      6.37  0.982    627   -3.00  LD   
 15  285.18   95952  1.172  338.5  129.43  126.64  0.197   18740    2452   12278      5.32  0.979    686   -3.00  AP   
 20  284.19   94213  1.155  337.9  161.24  156.64  0.245   18740   -5487   11652      3.64  0.968   1473   -5.18  CR   
 30  282.21   90812  1.121  336.8  229.62  220.00  0.351   18740   -3629   16521      3.99  0.937   2389   -5.90  CR   
 40  280.23   87511  1.088  335.6  232.96  220.00  0.357   18740   -3522   16534      3.86  0.935   2407   -5.86  CR   
 60  276.26   81200  1.024  333.2  250.67  230.00  0.387   18740   -3390   17771      3.60  0.925   2704   -6.11  CR   
 80  272.30   75262  0.963  330.8  258.13  230.00  0.401   18740   -3293   17781      3.35  0.920   2758   -6.06  CR   
100  268.34   69682  0.905  328.4  265.90  230.00  0.417   18740   -3215   17773      3.12  0.915   2813   -6.00  CR   
120  264.38   64441  0.849  326.0  274.00  230.00  0.432   18740   -3149   17746      2.93  0.909   2867   -5.93  CR   
140  260.41   59524  0.796  323.5  282.43  230.00  0.449   18740   -3088   17695      2.75  0.903   2920   -5.86  CR   
160  256.45   54915  0.746  321.0  291.22  230.00  0.467   18740   -3026   17621      2.61  0.896   2970   -5.78  CR   
180  252.49   50600  0.698  318.5  300.38  230.00  0.485   18740   -2959   17531      2.50  0.889   3016   -5.69  CR   
200  248.53   46563  0.653  316.0  309.92  230.00  0.505   18740   -2884   17438      2.41  0.882   3061   -5.60  CR   
220  244.56   42791  0.610  313.5  319.88  230.00  0.525   18740   -2799   17364      2.34  0.874   3107   -5.50  CR   
240  240.60   39271  0.569  311.0  330.26  230.00  0.546   18740   -2701   17327      2.30  0.866   3156   -5.41  CR   
250  238.62   37601  0.549  309.7  331.07  226.75  0.550   18740   -2490   16886      2.29  1.042   3683   -6.31  CR   


High mass DESCENT
=================

 FL    T       p      rho     a      TAS     CAS     M     mass   Thrust    Drag     Fuel    ESF    ROCD   gamma Conf  Lim
[-]   [K]     [Pa]  [kg/m3] [m/s]   [kt]    [kt]    [-]    [kg]     [N]     [N]     [kgm]    [-]   [fpm]   [deg]  [-]     
  0  288.15  101325  1.225  340.3  119.22  119.22  0.180   21500    7959   19195      6.76  0.982    632   -3.00  LD   
  5  287.16   99508  1.207  339.7  120.09  119.22  0.182   21500    7955   19195      6.68  0.982    636   -3.00  LD   
 10  286.17   97717  1.190  339.1  126.04  124.22  0.191   21500    8137   19398      6.72  0.980    668   -3.00  LD   
 15  285.18   95952  1.172  338.5  137.18  134.22  0.208   21500    2771   14074      5.48  0.976    727   -3.00  AP   
 20  284.19   94213  1.155  337.9  169.04  164.22  0.257   21500   -5154   13309      3.72  0.965   1446   -4.85  CR   
 30  282.21   90812  1.121  336.8  229.62  220.00  0.351   21500   -3629   17231      3.99  0.937   2156   -5.32  CR   
 40  280.23   87511  1.088  335.6  232.96  220.00  0.357   21500   -3522   17238      3.86  0.935   2172   -5.28  CR   
 60  276.26   81200  1.024  333.2  250.67  230.00  0.387   21500   -3390   18381      3.60  0.925   2424   -5.48  CR   
 80  272.30   75262  0.963  330.8  258.13  230.00  0.401   21500   -3293   18374      3.35  0.920   2471   -5.42  CR   
100  268.34   69682  0.905  328.4  265.90  230.00  0.417   21500   -3215   18350      3.12  0.915   2519   -5.37  CR   
120  264.38   64441  0.849  326.0  274.00  230.00  0.432   21500   -3149   18307      2.93  0.909   2566   -5.31  CR   
140  260.41   59524  0.796  323.5  282.43  230.00  0.449   21500   -3088   18243      2.75  0.903   2612   -5.24  CR   
160  256.45   54915  0.746  321.0  291.22  230.00  0.467   21500   -3026   18161      2.61  0.896   2656   -5.17  CR   
180  252.49   50600  0.698  318.5  300.38  230.00  0.485   21500   -2959   18067      2.50  0.889   2698   -5.09  CR   
200  248.53   46563  0.653  316.0  309.92  230.00  0.505   21500   -2884   17967      2.41  0.882   2738   -5.00  CR   
220  244.56   42791  0.610  313.5  319.88  230.00  0.525   21500   -2799   17862      2.34  0.874   2775   -4.91  CR   
240  240.60   39271  0.569  311.0  330.26  230.00  0.546   21500   -2701   17705      2.30  0.866   2803   -4.81  CR   
250  238.62   37601  0.549  309.7  331.07  226.75  0.550   21500   -2490   17238      2.29  1.042   3269   -5.59  CR   


Low mass CRUISE
===============

 FL    T       p      rho     a      TAS     CAS     M     mass   Thrust    Drag     Fuel    ESF    ROCD   gamma Conf  Lim
[-]   [K]     [Pa]  [kg/m3] [m/s]   [kt]    [kt]    [-]    [kg]     [N]     [N]     [kgm]    [-]   [fpm]   [deg]  [-]     
  0  288.15  101325  1.225  340.3  150.00  150.00  0.227   14760    9503    9503      7.69  0.000      0    0.00  CR   
  5  287.16   99508  1.207  339.7  151.09  150.00  0.229   14760    9508    9508      7.62  0.000      0    0.00  CR   
 10  286.17   97717  1.190  339.1  152.18  150.00  0.231   14760    9512    9512      7.55  0.000      0    0.00  CR   
 15  285.18   95952  1.172  338.5  153.29  150.00  0.233   14760    9517    9517      7.48  0.000      0    0.00  CR   
 20  284.19   94213  1.155  337.9  154.41  150.00  0.235   14760    9522    9522      7.41  0.000      0    0.00  CR   
 30  282.21   90812  1.121  336.8  187.97  180.00  0.287   14760   11480   11480      8.74  0.000      0    0.00  CR   
 40  280.23   87511  1.088  335.6  190.73  180.00  0.292   14760   11490   11490      8.65  0.000      0    0.00  CR   
 60  276.26   81200  1.024  333.2  250.67  230.00  0.387   14760   17039   17039     12.72  0.000      0    0.00  CR   
 80  272.30   75262  0.963  330.8  258.13  230.00  0.401   14760   17068   17068     12.59  0.000      0    0.00  CR   
100  268.34   69682  0.905  328.4  254.48  220.00  0.399   14760   15787   15787     11.51  0.000      0    0.00  CR   
120  264.38   64441  0.849  326.0  262.26  220.00  0.414   14760   15796   15796     11.40  0.000      0    0.00  CR   
140  260.41   59524  0.796  323.5  270.37  220.00  0.430   14760   15785   15785     11.30  0.000      0    0.00  CR   
160  256.45   54915  0.746  321.0  278.83  220.00  0.447   14760   15751   15751     11.24  0.000      0    0.00  CR   
180  252.49   50600  0.698  318.5  278.64  212.95  0.450   14760   14880   14880     10.55  0.000      0    0.00  CR   
200  248.53   46563  0.653  316.0  276.44  204.48  0.450   14760   13903   13903      9.77  0.000      0    0.00  CR   
220  244.56   42791  0.610  313.5  274.23  196.21  0.450   14760   13008   13008      9.06  0.000      0    0.00  CR   
240  240.60   39271  0.569  311.0  272.00  188.13  0.450   14760   12194   12194      8.42  0.000      0    0.00  CR   
250  238.62   37601  0.549  309.7  270.88  184.16  0.450   14760   11817   11817      8.13  0.000      0    0.00  CR   


Medium mass CRUISE
==================

 FL    T       p      rho     a      TAS     CAS     M     mass   Thrust    Drag     Fuel    ESF    ROCD   gamma Conf  Lim
[-]   [K]     [Pa]  [kg/m3] [m/s]   [kt]    [kt]    [-]    [kg]     [N]     [N]     [kgm]    [-]   [fpm]   [deg]  [-]     
  0  288.15  101325  1.225  340.3  150.00  150.00  0.227   18740   11441   11441      8.25  0.000      0    0.00  CR   
  5  287.16   99508  1.207  339.7  151.09  150.00  0.229   18740   11449   11449      8.18  0.000      0    0.00  CR   
 10  286.17   97717  1.190  339.1  152.18  150.00  0.231   18740   11456   11456      8.11  0.000      0    0.00  CR   
 15  285.18   95952  1.172  338.5  153.29  150.00  0.233   18740   11463   11463      8.05  0.000      0    0.00  CR   
 20  284.19   94213  1.155  337.9  154.41  150.00  0.235   18740   11471   11471      7.99  0.000      0    0.00  CR   
 30  282.21   90812  1.121  336.8  187.97  180.00  0.287   18740   12838   12838      9.23  0.000      0    0.00  CR   
 40  280.23   87511  1.088  335.6  190.73  180.00  0.292   18740   12846   12846      9.15  0.000      0    0.00  CR   
 60  276.26   81200  1.024  333.2  250.67  230.00  0.387   18740   17771   17771     13.06  0.000      0    0.00  CR   
 80  272.30   75262  0.963  330.8  258.13  230.00  0.401   18740   17781   17781     12.94  0.000      0    0.00  CR   
100  268.34   69682  0.905  328.4  254.48  220.00  0.399   18740   16571   16571     11.90  0.000      0    0.00  CR   
120  264.38   64441  0.849  326.0  262.26  220.00  0.414   18740   16558   16558     11.79  0.000      0    0.00  CR   
140  260.41   59524  0.796  323.5  270.37  220.00  0.430   18740   16526   16526     11.72  0.000      0    0.00  CR   
160  256.45   54915  0.746  321.0  278.83  220.00  0.447   18740   16474   16474     11.71  0.000      0    0.00  CR   
180  252.49   50600  0.698  318.5  278.64  212.95  0.450   18740   15651   15651     11.07  0.000      0    0.00  CR   
200  248.53   46563  0.653  316.0  276.44  204.48  0.450   18740   14741   14741     10.35  0.000      0    0.00  CR   
220  244.56   42791  0.610  313.5  274.23  196.21  0.450   18740   13920   13920      9.70  0.000      0    0.00  CR   
240  240.60   39271  0.569  311.0  272.00  188.13  0.450   18740   13188   13188      9.14  0.000      0    0.00  CR   
250  238.62   37601  0.549  309.7  270.88  184.16  0.450   18740   12854   12854      8.89  0.000      0    0.00  CR   


High mass CRUISE
================

 FL    T       p      rho     a      TAS     CAS     M     mass   Thrust    Drag     Fuel    ESF    ROCD   gamma Conf  Lim
[-]   [K]     [Pa]  [kg/m3] [m/s]   [kt]    [kt]    [-]    [kg]     [N]     [N]     [kgm]    [-]   [fpm]   [deg]  [-]     
  0  288.15  101325  1.225  340.3  150.00  150.00  0.227   21500   13056   13056      8.72  0.000      0    0.00  CR   
  5  287.16   99508  1.207  339.7  151.09  150.00  0.229   21500   13066   13066      8.66  0.000      0    0.00  CR   
 10  286.17   97717  1.190  339.1  152.18  150.00  0.231   21500   13075   13075      8.60  0.000      0    0.00  CR   
 15  285.18   95952  1.172  338.5  153.29  150.00  0.233   21500   13085   13085      8.54  0.000      0    0.00  CR   
 20  284.19   94213  1.155  337.9  154.41  150.00  0.235   21500   13094   13094      8.48  0.000      0    0.00  CR   
 30  282.21   90812  1.121  336.8  187.97  180.00  0.287   21500   13969   13969      9.65  0.000      0    0.00  CR   
 40  280.23   87511  1.088  335.6  190.73  180.00  0.292   21500   13975   13975      9.57  0.000      0    0.00  CR   
 60  276.26   81200  1.024  333.2  250.67  230.00  0.387   21500   18381   18381     13.35  0.000      0    0.00  CR   
 80  272.30   75262  0.963  330.8  258.13  230.00  0.401   21500   18374   18374     13.24  0.000      0    0.00  CR   
100  268.34   69682  0.905  328.4  254.48  220.00  0.399   21500   17225   17225     12.22  0.000      0    0.00  CR   
120  264.38   64441  0.849  326.0  262.26  220.00  0.414   21500   17193   17193     12.13  0.000      0    0.00  CR   
140  260.41   59524  0.796  323.5  270.37  220.00  0.430   21500   17144   17144     12.09  0.000      0    0.00  CR   
160  256.45   54915  0.746  321.0  278.83  220.00  0.447   21500   17077   17077     12.13  0.000      0    0.00  CR   T
180  252.49   50600  0.698  318.5  278.64  212.95  0.450   21500   16294   16294     11.53  0.000      0    0.00  CR   T
200  248.53   46563  0.653  316.0  276.44  204.48  0.450   21500   15439   15439     10.86  0.000      0    0.00  CR   T
220  244.56   42791  0.610  313.5  274.23  196.21  0.450   21500   14680   14680     10.28  0.000      0    0.00  CR   T
240  240.60   39271  0.569  311.0  272.00  188.13  0.450   21500   14015   14015      9.79  0.000      0    0.00  CR   T
250  238.62   37601  0.549  309.7  270.88  184.16  0.450   21500   13719   13719      9.59  0.000      0    0.00  CR   T
