BADA PERFORMANCE FILE RESULTS
=============================
=============================

Low mass CLIMB
==============

 FL    T       p      rho     a      TAS     CAS     M     mass   Thrust    Drag     Fuel    ESF    ROCD   gamma Conf  Lim
[-]   [K]     [Pa]  [kg/m3] [m/s]   [kt]    [kt]    [-]    [kg]     [N]     [N]     [kgm]    [-]   [fpm]   [deg]  [-]     
  0  308.15  101325  1.145  351.9  126.29  122.12  0.185   14760   34100    9968     15.31  0.981   1956    9.41  TO   
  5  307.16   99508  1.129  351.3  137.64  132.12  0.202   14760   32322    8914     15.18  0.977   2060    9.09  IC   
 10  306.17   97717  1.112  350.8  143.90  137.12  0.211   14760   31272    9036     15.04  0.975   2041    8.62  IC   
 15  305.18   95952  1.095  350.2  179.70  170.00  0.264   14760   27049   10697     15.00  0.962   1849    6.24  IC   
 20  304.19   94213  1.079  349.6  181.03  170.00  0.266   14760   26672   10701     14.83  0.962   1817    6.09  CR   
 30  302.21   90812  1.047  348.5  183.73  170.00  0.271   14760   25918   10710     14.50  0.960   1753    5.79  CR   
 40  300.23   87511  1.015  347.4  186.48  170.00  0.276   14760   25165   10719     14.18  0.959   1687    5.49  CR   
 60  296.26   81200  0.955  345.1  192.17  170.00  0.287   14760   23670   10736     13.52  0.956   1550    4.90  CR   
 80  292.30   75262  0.897  342.7  198.11  170.00  0.297   14760   22200   10752     12.87  0.953   1408    4.32  CR   
100  288.34   69682  0.842  340.4  204.32  170.00  0.309   14760   20767   10767     12.23  0.949   1263    3.76  CR   
120  284.38   64441  0.789  338.1  210.80  170.00  0.321   14760   19378   10779     11.61  0.946   1115    3.22  CR   
140  280.41   59524  0.739  335.7  217.58  170.00  0.333   14760   18042   10787     11.00  0.942    966    2.71  CR   
160  276.45   54915  0.692  333.3  224.66  170.00  0.347   14760   16766   10790     10.41  0.937    817    2.22  CR   
180  272.49   50600  0.647  330.9  232.08  170.00  0.361   14760   15552   10786      9.85  0.933    669    1.76  CR   
200  268.53   46563  0.604  328.5  239.84  170.00  0.376   14760   14405   10773      9.30  0.928    523    1.33  CR   
220  264.56   42791  0.563  326.1  247.96  170.00  0.391   14760   13326   10751      8.79  0.922    381    0.94  CR   
240  260.60   39271  0.525  323.6  256.47  170.00  0.408   14760   12317   10716      8.29  0.916    243    0.58  CR   
250  258.62   37601  0.506  322.4  260.88  170.00  0.416   14760   11838   10695      8.06  0.913    176    0.41  CR   


Medium mass CLIMB
=================

 FL    T       p      rho     a      TAS     CAS     M     mass   Thrust    Drag     Fuel    ESF    ROCD   gamma Conf  Lim
[-]   [K]     [Pa]  [kg/m3] [m/s]   [kt]    [kt]    [-]    [kg]     [N]     [N]     [kgm]    [-]   [fpm]   [deg]  [-]     
  0  308.15  101325  1.145  351.9  139.68  135.07  0.204   18740   32356   12527     15.36  0.977   1394    6.05  TO   
  5  307.16   99508  1.129  351.3  151.13  145.07  0.221   18740   30699   11363     15.23  0.973   1465    5.88  IC   
 10  306.17   97717  1.112  350.8  157.49  150.07  0.231   18740   29702   11458     15.08  0.971   1436    5.53  IC   
 15  305.18   95952  1.095  350.2  179.70  170.00  0.264   18740   27049   12224     15.00  0.962   1320    4.45  IC   
 20  304.19   94213  1.079  349.6  181.03  170.00  0.266   18740   26672   12229     14.83  0.962   1294    4.33  CR   
 30  302.21   90812  1.047  348.5  183.73  170.00  0.271   18740   25918   12238     14.50  0.960   1242    4.10  CR   
 40  300.23   87511  1.015  347.4  186.48  170.00  0.276   18740   25165   12247     14.18  0.959   1188    3.86  CR   
 60  296.26   81200  0.955  345.1  192.17  170.00  0.287   18740   23670   12262     13.52  0.956   1077    3.40  CR   
 80  292.30   75262  0.897  342.7  198.11  170.00  0.297   18740   22200   12272     12.87  0.953    962    2.95  CR   
100  288.34   69682  0.842  340.4  204.32  170.00  0.309   18740   20767   12277     12.23  0.949    844    2.51  CR   
120  284.38   64441  0.789  338.1  210.80  170.00  0.321   18740   19378   12275     11.61  0.946    725    2.09  CR   
140  280.41   59524  0.739  335.7  217.58  170.00  0.333   18740   18042   12264     11.00  0.942    606    1.70  CR   
160  276.45   54915  0.692  333.3  224.66  170.00  0.347   18740   16766   12243     10.41  0.937    487    1.32  CR   
180  272.49   50600  0.647  330.9  232.08  170.00  0.361   18740   15552   12209      9.85  0.933    370    0.97  CR   
200  268.53   46563  0.604  328.5  239.84  170.00  0.376   18740   14405   12161      9.30  0.928    255    0.65  CR   
220  264.56   42791  0.563  326.1  247.96  170.00  0.391   18740   13326   12098      8.79  0.922    143    0.35  CR   
240  260.60   39271  0.525  323.6  256.47  170.00  0.408   18740   12317   12022      8.29  0.916     35    0.08  CR   
250  258.62   37601  0.506  322.4  260.88  170.00  0.416   18740   11838   11980      8.06  0.913    -17   -0.04  CR   


High mass CLIMB
===============

 FL    T       p      rho     a      TAS     CAS     M     mass   Thrust    Drag     Fuel    ESF    ROCD   gamma Conf  Lim
[-]   [K]     [Pa]  [kg/m3] [m/s]   [kt]    [kt]    [-]    [kg]     [N]     [N]     [kgm]    [-]   [fpm]   [deg]  [-]     
  0  308.15  101325  1.145  351.9  148.14  143.25  0.217   21500   31322   14305     15.38  0.974   1103    4.51  TO   
  5  307.16   99508  1.129  351.3  159.65  153.25  0.234   21500   29720   13083     15.26  0.970   1157    4.39  IC   
 10  306.17   97717  1.112  350.8  166.07  158.25  0.244   21500   28750   13157     15.11  0.968   1125    4.10  IC   
 15  305.18   95952  1.095  350.2  179.70  170.00  0.264   21500   27049   13496     15.00  0.962   1052    3.55  IC   
 20  304.19   94213  1.079  349.6  181.03  170.00  0.266   21500   26672   13502     14.83  0.962   1029    3.44  CR   
 30  302.21   90812  1.047  348.5  183.73  170.00  0.271   21500   25918   13511     14.50  0.960    982    3.24  CR   
 40  300.23   87511  1.015  347.4  186.48  170.00  0.276   21500   25165   13520     14.18  0.959    933    3.04  CR   
 60  296.26   81200  0.955  345.1  192.17  170.00  0.287   21500   23670   13533     13.52  0.956    834    2.63  CR   
 80  292.30   75262  0.897  342.7  198.11  170.00  0.297   21500   22200   13538     12.87  0.953    732    2.24  CR   
100  288.34   69682  0.842  340.4  204.32  170.00  0.309   21500   20767   13535     12.23  0.949    627    1.87  CR   
120  284.38   64441  0.789  338.1  210.80  170.00  0.321   21500   19378   13522     11.61  0.946    521    1.51  CR   
140  280.41   59524  0.739  335.7  217.58  170.00  0.333   21500   18042   13495     11.00  0.942    416    1.16  CR   
160  276.45   54915  0.692  333.3  224.66  170.00  0.347   21500   16766   13453     10.41  0.937    311    0.84  CR   
180  272.49   50600  0.647  330.9  232.08  170.00  0.361   21500   15552   13394      9.85  0.933    208    0.55  CR   
200  268.53   46563  0.604  328.5  239.84  170.00  0.376   21500   14405   13316      9.30  0.928    108    0.27  CR   
220  264.56   42791  0.563  326.1  247.96  170.00  0.391   21500   13326   13221      8.79  0.922     11    0.03  CR   
240  260.60   39271  0.525  323.6  256.47  170.00  0.408   21500   12317   13110      8.29  0.916    -83   -0.20  CR   
250  258.62   37601  0.506  322.4  260.88  170.00  0.416   21500   11838   13051      8.06  0.913   -128   -0.30  CR   


Low mass DESCENT
================

 FL    T       p      rho     a      TAS     CAS     M     mass   Thrust    Drag     Fuel    ESF    ROCD   gamma Conf  Lim
[-]   [K]     [Pa]  [kg/m3] [m/s]   [kt]    [kt]    [-]    [kg]     [N]     [N]     [kgm]    [-]   [fpm]   [deg]  [-]     
  0  308.15  101325  1.145  351.9  103.04   99.64  0.151   14760    5522   13195      6.15  0.987    511   -3.00  LD   
  5  307.16   99508  1.129  351.3  103.81   99.64  0.152   14760    5520   13195      6.06  0.987    514   -3.00  LD   
 10  306.17   97717  1.112  350.8  109.83  104.64  0.161   14760    5726   13413      6.09  0.985    544   -3.00  LD   
 15  305.18   95952  1.095  350.2  121.21  114.64  0.178   14760    1992    9705      5.26  0.982    600   -3.00  AP   
 20  304.19   94213  1.079  349.6  154.05  144.64  0.227   14760   -7412    9295      3.31  0.972   1635   -6.44  CR   
 30  302.21   90812  1.047  348.5  237.62  220.00  0.351   14760   -4763   15668      3.66  0.936   2969   -7.59  CR   
 40  300.23   87511  1.015  347.4  241.13  220.00  0.357   14760   -4622   15689      3.53  0.934   2987   -7.53  CR   
 60  296.26   81200  0.955  345.1  259.59  230.00  0.387   14760   -4411   17039      3.26  0.924   3356   -7.87  CR   
 80  292.30   75262  0.897  342.7  267.44  230.00  0.401   14760   -4264   17068      3.01  0.919   3416   -7.78  CR   
100  288.34   69682  0.842  340.4  275.63  230.00  0.417   14760   -4148   17081      2.79  0.913   3479   -7.70  CR   
120  284.38   64441  0.789  338.1  284.17  230.00  0.432   14760   -4053   17072      2.59  0.907   3543   -7.61  CR   
140  280.41   59524  0.739  335.7  293.08  230.00  0.449   14760   -3973   17036      2.42  0.901   3606   -7.52  CR   
160  276.45   54915  0.692  333.3  302.36  230.00  0.467   14760   -3904   16972      2.28  0.895   3665   -7.41  CR   
180  272.49   50600  0.647  330.9  312.05  230.00  0.485   14760   -3843   16887      2.17  0.888   3722   -7.30  CR   
200  268.53   46563  0.604  328.5  322.15  230.00  0.505   14760   -3786   16802      2.08  0.880   3780   -7.19  CR   
220  264.56   42791  0.563  326.1  332.70  230.00  0.525   14760   -3731   16766      2.02  0.872   3846   -7.09  CR   
240  260.60   39271  0.525  323.6  343.71  230.00  0.546   14760   -3678   16873      1.98  0.864   3940   -7.04  CR   
250  258.62   37601  0.506  322.4  344.67  226.75  0.550   14760   -3490   16465      1.97  1.039   4611   -8.23  CR   


Medium mass DESCENT
===================

 FL    T       p      rho     a      TAS     CAS     M     mass   Thrust    Drag     Fuel    ESF    ROCD   gamma Conf  Lim
[-]   [K]     [Pa]  [kg/m3] [m/s]   [kt]    [kt]    [-]    [kg]     [N]     [N]     [kgm]    [-]   [fpm]   [deg]  [-]     
  0  308.15  101325  1.145  351.9  115.45  111.64  0.169   18740    6963   16738      6.64  0.984    572   -3.00  LD   
  5  307.16   99508  1.129  351.3  116.31  111.64  0.170   18740    6960   16737      6.55  0.984    576   -3.00  LD   
 10  306.17   97717  1.112  350.8  122.42  116.64  0.180   18740    7152   16947      6.59  0.982    606   -3.00  LD   
 15  305.18   95952  1.095  350.2  133.90  126.64  0.197   18740    2449   12278      5.50  0.978    663   -3.00  AP   
 20  304.19   94213  1.079  349.6  166.82  156.64  0.245   18740   -6791   11652      3.43  0.967   1532   -5.57  CR   
 30  302.21   90812  1.047  348.5  237.62  220.00  0.351   18740   -4763   16521      3.66  0.936   2436   -6.22  CR   
 40  300.23   87511  1.015  347.4  241.13  220.00  0.357   18740   -4622   16534      3.53  0.934   2451   -6.17  CR   
 60  296.26   81200  0.955  345.1  259.59  230.00  0.387   18740   -4411   17771      3.26  0.924   2733   -6.40  CR   
 80  292.30   75262  0.897  342.7  267.44  230.00  0.401   18740   -4264   17781      3.01  0.919   2781   -6.33  CR   
100  288.34   69682  0.842  340.4  275.63  230.00  0.417   18740   -4148   17773      2.79  0.913   2830   -6.25  CR   
120  284.38   64441  0.789  338.1  284.17  230.00  0.432   18740   -4053   17746      2.59  0.907   2880   -6.18  CR   
140  280.41   59524  0.739  335.7  293.08  230.00  0.449   18740   -3973   17695      2.42  0.901   2929   -6.10  CR   
160  276.45   54915  0.692  333.3  302.36  230.00  0.467   18740   -3904   17621      2.28  0.895   2976   -6.01  CR   
180  272.49   50600  0.647  330.9  312.05  230.00  0.485   18740   -3843   17531      2.17  0.888   3023   -5.93  CR   
200  268.53   46563  0.604  328.5  322.15  230.00  0.505   18740   -3786   17438      2.08  0.880   3069   -5.83  CR   
220  264.56   42791  0.563  326.1  332.70  230.00  0.525   18740   -3731   17364      2.02  0.872   3118   -5.75  CR   
240  260.60   39271  0.525  323.6  343.71  230.00  0.546   18740   -3678   17327      1.98  0.864   3172   -5.66  CR   
250  258.62   37601  0.506  322.4  344.67  226.75  0.550   18740   -3490   16886      1.97  1.039   3709   -6.61  CR   


High mass DESCENT
=================

 FL    T       p      rho     a      TAS     CAS     M     mass   Thrust    Drag     Fuel    ESF    ROCD   gamma Conf  Lim
[-]   [K]     [Pa]  [kg/m3] [m/s]   [kt]    [kt]    [-]    [kg]     [N]     [N]     [kgm]    [-]   [fpm]   [deg]  [-]     
  0  308.15  101325  1.145  351.9  123.29  119.22  0.180   21500    7956   19195      6.99  0.982    611   -3.00  LD   
  5  307.16   99508  1.129  351.3  124.20  119.22  0.182   21500    7952   19195      6.91  0.982    615   -3.00  LD   
 10  306.17   97717  1.112  350.8  130.37  124.22  0.191   21500    8134   19398      6.94  0.980    646   -3.00  LD   
 15  305.18   95952  1.095  350.2  141.91  134.22  0.208   21500    2767   14074      5.66  0.976    703   -3.00  AP   
 20  304.19   94213  1.079  349.6  174.89  164.22  0.257   21500   -6442   13309      3.50  0.964   1494   -5.18  CR   
 30  302.21   90812  1.047  348.5  237.62  220.00  0.351   21500   -4763   17231      3.66  0.936   2194   -5.60  CR   
 40  300.23   87511  1.015  347.4  241.13  220.00  0.357   21500   -4622   17238      3.53  0.934   2207   -5.56  CR   
 60  296.26   81200  0.955  345.1  259.59  230.00  0.387   21500   -4411   18381      3.26  0.924   2448   -5.73  CR   
 80  292.30   75262  0.897  342.7  267.44  230.00  0.401   21500   -4264   18374      3.01  0.919   2489   -5.66  CR   
100  288.34   69682  0.842  340.4  275.63  230.00  0.417   21500   -4148   18350      2.79  0.913   2531   -5.59  CR   
120  284.38   64441  0.789  338.1  284.17  230.00  0.432   21500   -4053   18307      2.59  0.907   2575   -5.52  CR   
140  280.41   59524  0.739  335.7  293.08  230.00  0.449   21500   -3973   18243      2.42  0.901   2618   -5.45  CR   
160  276.45   54915  0.692  333.3  302.36  230.00  0.467   21500   -3904   18161      2.28  0.895   2659   -5.37  CR   
180  272.49   50600  0.647  330.9  312.05  230.00  0.485   21500   -3843   18067      2.17  0.888   2701   -5.29  CR   
200  268.53   46563  0.604  328.5  322.15  230.00  0.505   21500   -3786   17967      2.08  0.880   2742   -5.21  CR   
220  264.56   42791  0.563  326.1  332.70  230.00  0.525   21500   -3731   17862      2.02  0.872   2782   -5.12  CR   
240  260.60   39271  0.525  323.6  343.71  230.00  0.546   21500   -3678   17705      1.98  0.864   2814   -5.02  CR   
250  258.62   37601  0.506  322.4  344.67  226.75  0.550   21500   -3490   17238      1.97  1.039   3288   -5.86  CR   


Low mass CRUISE
===============

 FL    T       p      rho     a      TAS     CAS     M     mass   Thrust    Drag     Fuel    ESF    ROCD   gamma Conf  Lim
[-]   [K]     [Pa]  [kg/m3] [m/s]   [kt]    [kt]    [-]    [kg]     [N]     [N]     [kgm]    [-]   [fpm]   [deg]  [-]     
  0  308.15  101325  1.145  351.9  155.12  150.00  0.227   14760    9503    9503      7.96  0.000      0    0.00  CR   
  5  307.16   99508  1.129  351.3  156.26  150.00  0.229   14760    9508    9508      7.88  0.000      0    0.00  CR   
 10  306.17   97717  1.112  350.8  157.41  150.00  0.231   14760    9512    9512      7.81  0.000      0    0.00  CR   
 15  305.18   95952  1.095  350.2  158.58  150.00  0.233   14760    9517    9517      7.74  0.000      0    0.00  CR   
 20  304.19   94213  1.079  349.6  159.75  150.00  0.235   14760    9522    9522      7.67  0.000      0    0.00  CR   
 30  302.21   90812  1.047  348.5  194.51  180.00  0.287   14760   11480   11480      9.05  0.000      0    0.00  CR   
 40  300.23   87511  1.015  347.4  197.42  180.00  0.292   14760   11490   11490      8.96  0.000      0    0.00  CR   
 60  296.26   81200  0.955  345.1  259.59  230.00  0.387   14760   17039   17039     13.17  0.000      0    0.00  CR   
 80  292.30   75262  0.897  342.7  267.44  230.00  0.401   14760   17068   17068     13.04  0.000      0    0.00  CR   
100  288.34   69682  0.842  340.4  263.79  220.00  0.399   14760   15787   15787     11.94  0.000      0    0.00  CR   
120  284.38   64441  0.789  338.1  272.00  220.00  0.414   14760   15796   15796     11.82  0.000      0    0.00  CR   
140  280.41   59524  0.739  335.7  280.56  220.00  0.430   14760   15785   15785     11.73  0.000      0    0.00  CR   T
160  276.45   54915  0.692  333.3  289.49  220.00  0.447   14760   15751   15751     11.67  0.000      0    0.00  CR   T
180  272.49   50600  0.647  330.9  289.46  212.95  0.450   14760   14880   14880     10.96  0.000      0    0.00  CR   T
200  268.53   46563  0.604  328.5  287.35  204.48  0.450   14760   13903   13903     10.15  0.000      0    0.00  CR   T
220  264.56   42791  0.563  326.1  285.22  196.21  0.450   14760   13008   13008      9.42  0.000      0    0.00  CR   T
240  260.60   39271  0.525  323.6  283.08  188.13  0.450   14760   12194   12194      8.76  0.000      0    0.00  CR   T
250  258.62   37601  0.506  322.4  282.00  184.16  0.450   14760   11817   11817      8.46  0.000      0    0.00  CR   T


Medium mass CRUISE
==================

 FL    T       p      rho     a      TAS     CAS     M     mass   Thrust    Drag     Fuel    ESF    ROCD   gamma Conf  Lim
[-]   [K]     [Pa]  [kg/m3] [m/s]   [kt]    [kt]    [-]    [kg]     [N]     [N]     [kgm]    [-]   [fpm]   [deg]  [-]     
  0  308.15  101325  1.145  351.9  155.12  150.00  0.227   18740   11441   11441      8.53  0.000      0    0.00  CR   
  5  307.16   99508  1.129  351.3  156.26  150.00  0.229   18740   11449   11449      8.46  0.000      0    0.00  CR   
 10  306.17   97717  1.112  350.8  157.41  150.00  0.231   18740   11456   11456      8.39  0.000      0    0.00  CR   
 15  305.18   95952  1.095  350.2  158.58  150.00  0.233   18740   11463   11463      8.33  0.000      0    0.00  CR   
 20  304.19   94213  1.079  349.6  159.75  150.00  0.235   18740   11471   11471      8.26  0.000      0    0.00  CR   
 30  302.21   90812  1.047  348.5  194.51  180.00  0.287   18740   12838   12838      9.55  0.000      0    0.00  CR   
 40  300.23   87511  1.015  347.4  197.42  180.00  0.292   18740   12846   12846      9.47  0.000      0    0.00  CR   
 60  296.26   81200  0.955  345.1  259.59  230.00  0.387   18740   17771   17771     13.53  0.000      0    0.00  CR   
 80  292.30   75262  0.897  342.7  267.44  230.00  0.401   18740   17781   17781     13.41  0.000      0    0.00  CR   T
100  288.34   69682  0.842  340.4  263.79  220.00  0.399   18740   16571   16571     12.33  0.000      0    0.00  CR   
120  284.38   64441  0.789  338.1  272.00  220.00  0.414   18740   16558   16558     12.23  0.000      0    0.00  CR   T
140  280.41   59524  0.739  335.7  280.56  220.00  0.430   18740   16526   16526     12.16  0.000      0    0.00  CR   T
160  276.45   54915  0.692  333.3  289.49  220.00  0.447   18740   16474   16474     12.16  0.000      0    0.00  CR   T
180  272.49   50600  0.647  330.9  289.46  212.95  0.450   18740   15651   15651     11.50  0.000      0    0.00  CR   T
200  268.53   46563  0.604  328.5  287.35  204.48  0.450   18740   14741   14741     10.75  0.000      0    0.00  CR   T
220  264.56   42791  0.563  326.1  285.22  196.21  0.450   18740   13920   13920     10.09  0.000      0    0.00  CR   T
240  260.60   39271  0.525  323.6  283.08  188.13  0.450   18740   13188   13188      9.51  0.000      0    0.00  CR   T
250  258.62   37601  0.506  322.4  282.00  184.16  0.450   18740   12854   12854      9.25  0.000      0    0.00  CR   T


High mass CRUISE
================

 FL    T       p      rho     a      TAS     CAS     M     mass   Thrust    Drag     Fuel    ESF    ROCD   gamma Conf  Lim
[-]   [K]     [Pa]  [kg/m3] [m/s]   [kt]    [kt]    [-]    [kg]     [N]     [N]     [kgm]    [-]   [fpm]   [deg]  [-]     
  0  308.15  101325  1.145  351.9  155.12  150.00  0.227   21500   13056   13056      9.02  0.000      0    0.00  CR   
  5  307.16   99508  1.129  351.3  156.26  150.00  0.229   21500   13066   13066      8.96  0.000      0    0.00  CR   
 10  306.17   97717  1.112  350.8  157.41  150.00  0.231   21500   13075   13075      8.89  0.000      0    0.00  CR   
 15  305.18   95952  1.095  350.2  158.58  150.00  0.233   21500   13085   13085      8.83  0.000      0    0.00  CR   
 20  304.19   94213  1.079  349.6  159.75  150.00  0.235   21500   13094   13094      8.78  0.000      0    0.00  CR   
 30  302.21   90812  1.047  348.5  194.51  180.00  0.287   21500   13969   13969      9.98  0.000      0    0.00  CR   
 40  300.23   87511  1.015  347.4  197.42  180.00  0.292   21500   13975   13975      9.91  0.000      0    0.00  CR   
 60  296.26   81200  0.955  345.1  259.59  230.00  0.387   21500   18381   18381     13.83  0.000      0    0.00  CR   T
 80  292.30   75262  0.897  342.7  267.44  230.00  0.401   21500   18374   18374     13.71  0.000      0    0.00  CR   T
100  288.34   69682  0.842  340.4  263.79  220.00  0.399   21500   17225   17225     12.67  0.000      0    0.00  CR   T
120  284.38   64441  0.789  338.1  272.00  220.00  0.414   21500   17193   17193     12.58  0.000      0    0.00  CR   T
140  280.41   59524  0.739  335.7  280.56  220.00  0.430   21500   17144   17144     12.54  0.000      0    0.00  CR   T
160  276.45   54915  0.692  333.3  289.49  220.00  0.447   21500   17077   17077     12.59  0.000      0    0.00  CR   T
180  272.49   50600  0.647  330.9  289.46  212.95  0.450   21500   16294   16294     11.98  0.000      0    0.00  CR   T
200  268.53   46563  0.604  328.5  287.35  204.48  0.450   21500   15439   15439     11.29  0.000      0    0.00  CR   T
220  264.56   42791  0.563  326.1  285.22  196.21  0.450   21500   14680   14680     10.69  0.000      0    0.00  CR   T
240  260.60   39271  0.525  323.6  283.08  188.13  0.450   21500   14015   14015     10.19  0.000      0    0.00  CR   T
250  258.62   37601  0.506  322.4  282.00  184.16  0.450   21500   13719   13719      9.98  0.000      0    0.00  CR   T
