BADA PERFORMANCE FILE RESULTS
=============================
=============================

Low mass CLIMB
==============

 FL    T       p      rho     a      TAS     CAS     M     mass   Thrust    Drag     Fuel    ESF    ROCD   gamma Conf  Lim
[-]   [K]     [Pa]  [kg/m3] [m/s]   [kt]    [kt]    [-]    [kg]     [N]     [N]     [kgm]    [-]   [fpm]   [deg]  [-]     
  0  308.15  101325  1.145  351.9  126.91  122.72  0.186   15420   34695    9435     15.95  0.981   1969    9.43  TO   
  5  307.16   99508  1.129  351.3  138.26  132.72  0.202   15420   32879    9547     15.82  0.977   1974    8.67  IC   
 10  306.17   97717  1.112  350.8  144.53  137.72  0.212   15420   31812    9664     15.66  0.975   1954    8.21  IC   
 15  305.18   95952  1.095  350.2  179.70  170.00  0.264   15420   27537   11277     15.58  0.962   1759    5.94  IC   
 20  304.19   94213  1.079  349.6  181.03  170.00  0.266   15420   27169   11280     15.41  0.962   1730    5.80  CR   
 30  302.21   90812  1.047  348.5  183.73  170.00  0.271   15420   26431   11284     15.06  0.960   1671    5.52  CR   
 40  300.23   87511  1.015  347.4  186.48  170.00  0.276   15420   25692   11289     14.72  0.959   1610    5.24  CR   
 60  296.26   81200  0.955  345.1  192.17  170.00  0.287   15420   24217   11298     14.04  0.956   1482    4.68  CR   
 80  292.30   75262  0.897  342.7  198.11  170.00  0.297   15420   22759   11308     13.36  0.953   1348    4.14  CR   
100  288.34   69682  0.842  340.4  204.32  170.00  0.309   15420   21330   11318     12.70  0.949   1210    3.60  CR   
120  284.38   64441  0.789  338.1  210.80  170.00  0.321   15420   19941   11326     12.05  0.946   1069    3.09  CR   
140  280.41   59524  0.739  335.7  217.58  170.00  0.333   15420   18600   11333     11.42  0.942    926    2.59  CR   
160  276.45   54915  0.692  333.3  224.66  170.00  0.347   15420   17317   11336     10.82  0.937    782    2.12  CR   
180  272.49   50600  0.647  330.9  232.08  170.00  0.361   15420   16097   11335     10.25  0.933    640    1.68  CR   
200  268.53   46563  0.604  328.5  239.84  170.00  0.376   15420   14945   11326      9.71  0.928    499    1.27  CR   
220  264.56   42791  0.563  326.1  247.96  170.00  0.391   15420   13864   11308      9.21  0.922    362    0.89  CR   
240  260.60   39271  0.525  323.6  256.47  170.00  0.408   15420   12856   11278      8.74  0.916    229    0.55  CR   
250  258.62   37601  0.506  322.4  260.88  170.00  0.416   15420   12380   11258      8.52  0.913    165    0.39  CR   


Medium mass CLIMB
=================

 FL    T       p      rho     a      TAS     CAS     M     mass   Thrust    Drag     Fuel    ESF    ROCD   gamma Conf  Lim
[-]   [K]     [Pa]  [kg/m3] [m/s]   [kt]    [kt]    [-]    [kg]     [N]     [N]     [kgm]    [-]   [fpm]   [deg]  [-]     
  0  308.15  101325  1.145  351.9  139.38  134.78  0.204   19255   33009   11773     16.00  0.977   1450    6.31  TO   
  5  307.16   99508  1.129  351.3  150.83  144.78  0.221   19255   31304   11956     15.86  0.973   1424    5.72  IC   
 10  306.17   97717  1.112  350.8  157.18  149.78  0.231   19255   30290   12045     15.70  0.971   1396    5.38  IC   
 15  305.18   95952  1.095  350.2  179.70  170.00  0.264   19255   27537   12813     15.58  0.962   1276    4.30  IC   
 20  304.19   94213  1.079  349.6  181.03  170.00  0.266   19255   27169   12817     15.41  0.962   1252    4.19  CR   
 30  302.21   90812  1.047  348.5  183.73  170.00  0.271   19255   26431   12824     15.06  0.960   1202    3.97  CR   
 40  300.23   87511  1.015  347.4  186.48  170.00  0.276   19255   25692   12831     14.72  0.959   1151    3.74  CR   
 60  296.26   81200  0.955  345.1  192.17  170.00  0.287   19255   24217   12843     14.04  0.956   1045    3.30  CR   
 80  292.30   75262  0.897  342.7  198.11  170.00  0.297   19255   22759   12853     13.36  0.953    934    2.87  CR   
100  288.34   69682  0.842  340.4  204.32  170.00  0.309   19255   21330   12859     12.70  0.949    820    2.44  CR   
120  284.38   64441  0.789  338.1  210.80  170.00  0.321   19255   19941   12861     12.05  0.946    704    2.03  CR   
140  280.41   59524  0.739  335.7  217.58  170.00  0.333   19255   18600   12856     11.42  0.942    586    1.64  CR   
160  276.45   54915  0.692  333.3  224.66  170.00  0.347   19255   17317   12844     10.82  0.937    469    1.27  CR   
180  272.49   50600  0.647  330.9  232.08  170.00  0.361   19255   16097   12820     10.25  0.933    352    0.93  CR   
200  268.53   46563  0.604  328.5  239.84  170.00  0.376   19255   14945   12784      9.71  0.928    239    0.61  CR   
220  264.56   42791  0.563  326.1  247.96  170.00  0.391   19255   13864   12733      9.21  0.922    128    0.32  CR   
240  260.60   39271  0.525  323.6  256.47  170.00  0.408   19255   12856   12666      8.74  0.916     22    0.05  CR   
250  258.62   37601  0.506  322.4  260.88  170.00  0.416   19255   12380   12626      8.52  0.913    -29   -0.07  CR   


High mass CLIMB
===============

 FL    T       p      rho     a      TAS     CAS     M     mass   Thrust    Drag     Fuel    ESF    ROCD   gamma Conf  Lim
[-]   [K]     [Pa]  [kg/m3] [m/s]   [kt]    [kt]    [-]    [kg]     [N]     [N]     [kgm]    [-]   [fpm]   [deg]  [-]     
  0  308.15  101325  1.145  351.9  147.56  142.69  0.216   22000   31965   13458     16.02  0.974   1168    4.79  TO   
  5  307.16   99508  1.129  351.3  159.06  152.69  0.233   22000   30319   13705     15.88  0.970   1125    4.28  IC   
 10  306.17   97717  1.112  350.8  165.48  157.69  0.243   22000   29334   13772     15.72  0.968   1093    4.00  IC   
 15  305.18   95952  1.095  350.2  179.70  170.00  0.264   22000   27537   14121     15.58  0.962   1017    3.43  IC   
 20  304.19   94213  1.079  349.6  181.03  170.00  0.266   22000   27169   14126     15.41  0.962    996    3.33  CR   
 30  302.21   90812  1.047  348.5  183.73  170.00  0.271   22000   26431   14135     15.06  0.960    951    3.14  CR   
 40  300.23   87511  1.015  347.4  186.48  170.00  0.276   22000   25692   14144     14.72  0.959    905    2.94  CR   
 60  296.26   81200  0.955  345.1  192.17  170.00  0.287   22000   24217   14158     14.04  0.956    809    2.55  CR   
 80  292.30   75262  0.897  342.7  198.11  170.00  0.297   22000   22759   14168     13.36  0.953    709    2.17  CR   
100  288.34   69682  0.842  340.4  204.32  170.00  0.309   22000   21330   14172     12.70  0.949    606    1.80  CR   
120  284.38   64441  0.789  338.1  210.80  170.00  0.321   22000   19941   14168     12.05  0.946    502    1.45  CR   
140  280.41   59524  0.739  335.7  217.58  170.00  0.333   22000   18600   14154     11.42  0.942    397    1.11  CR   
160  276.45   54915  0.692  333.3  224.66  170.00  0.347   22000   17317   14127     10.82  0.937    292    0.79  CR   
180  272.49   50600  0.647  330.9  232.08  170.00  0.361   22000   16097   14085     10.25  0.933    189    0.50  CR   
200  268.53   46563  0.604  328.5  239.84  170.00  0.376   22000   14945   14026      9.71  0.928     89    0.23  CR   
220  264.56   42791  0.563  326.1  247.96  170.00  0.391   22000   13864   13947      9.21  0.922     -8   -0.02  CR   
240  260.60   39271  0.525  323.6  256.47  170.00  0.408   22000   12856   13847      8.74  0.916   -101   -0.24  CR   
250  258.62   37601  0.506  322.4  260.88  170.00  0.416   22000   12380   13790      8.52  0.913   -146   -0.34  CR   


Low mass DESCENT
================

 FL    T       p      rho     a      TAS     CAS     M     mass   Thrust    Drag     Fuel    ESF    ROCD   gamma Conf  Lim
[-]   [K]     [Pa]  [kg/m3] [m/s]   [kt]    [kt]    [-]    [kg]     [N]     [N]     [kgm]    [-]   [fpm]   [deg]  [-]     
  0  308.15  101325  1.145  351.9  101.54   98.19  0.148   15420    7152   15166      8.46  0.988    503   -3.00  LD   
  5  307.16   99508  1.129  351.3  102.29   98.19  0.150   15420    7150   15166      8.30  0.987    507   -3.00  LD   
 10  306.17   97717  1.112  350.8  108.30  103.19  0.159   15420    7292   15320      8.06  0.986    536   -3.00  LD   
 15  305.18   95952  1.095  350.2  119.68  113.19  0.176   15420    1525    9578      6.52  0.983    593   -3.00  AP   
 20  304.19   94213  1.079  349.6  152.51  143.19  0.224   15420   -7233    9842      2.98  0.972   1584   -6.30  CR   
 30  302.21   90812  1.047  348.5  237.62  220.00  0.351   15420   -3888   16236      2.68  0.936   2799   -7.16  CR   
 40  300.23   87511  1.015  347.4  241.13  220.00  0.357   15420   -3591   16254      2.67  0.934   2794   -7.04  CR   
 60  296.26   81200  0.955  345.1  259.59  230.00  0.387   15420   -3097   17617      2.70  0.924   3102   -7.27  CR   
 80  292.30   75262  0.897  342.7  267.44  230.00  0.401   15420   -2824   17651      2.65  0.919   3138   -7.15  CR   
100  288.34   69682  0.842  340.4  275.63  230.00  0.417   15420   -2638   17672      2.59  0.913   3186   -7.05  CR   
120  284.38   64441  0.789  338.1  284.17  230.00  0.432   15420   -2510   17674      2.53  0.907   3241   -6.96  CR   
140  280.41   59524  0.739  335.7  293.08  230.00  0.449   15420   -2414   17649      2.47  0.901   3296   -6.87  CR   
160  276.45   54915  0.692  333.3  302.36  230.00  0.467   15420   -2331   17594      2.41  0.895   3348   -6.77  CR   
180  272.49   50600  0.647  330.9  312.05  230.00  0.485   15420   -2243   17509      2.37  0.888   3395   -6.66  CR   
200  268.53   46563  0.604  328.5  322.15  230.00  0.505   15420   -2137   17409      2.36  0.880   3435   -6.53  CR   
220  264.56   42791  0.563  326.1  332.70  230.00  0.525   15420   -2001   17342      2.38  0.872   3474   -6.40  CR   
240  260.60   39271  0.525  323.6  343.71  230.00  0.546   15420   -1824   17407      2.45  0.864   3529   -6.31  CR   
250  258.62   37601  0.506  322.4  344.67  226.75  0.550   15420   -1600   16999      2.52  1.039   4114   -7.34  CR   


Medium mass DESCENT
===================

 FL    T       p      rho     a      TAS     CAS     M     mass   Thrust    Drag     Fuel    ESF    ROCD   gamma Conf  Lim
[-]   [K]     [Pa]  [kg/m3] [m/s]   [kt]    [kt]    [-]    [kg]     [N]     [N]     [kgm]    [-]   [fpm]   [deg]  [-]     
  0  308.15  101325  1.145  351.9  112.86  109.14  0.165   19255    8898   18934      8.59  0.985    559   -3.00  LD   
  5  307.16   99508  1.129  351.3  113.69  109.14  0.166   19255    8895   18934      8.44  0.984    563   -3.00  LD   
 10  306.17   97717  1.112  350.8  119.79  114.14  0.176   19255    9010   19066      8.28  0.983    593   -3.00  LD   
 15  305.18   95952  1.095  350.2  131.25  124.14  0.193   19255    9864   19955      8.31  0.979    650   -3.00  LD   
 20  304.19   94213  1.079  349.6  164.15  154.14  0.242   19255   -6619   12165      2.84  0.968   1496   -5.53  CR   
 30  302.21   90812  1.047  348.5  237.62  220.00  0.351   19255   -3888   17123      2.68  0.936   2340   -5.98  CR   
 40  300.23   87511  1.015  347.4  241.13  220.00  0.357   19255   -3591   17135      2.67  0.934   2337   -5.88  CR   
 60  296.26   81200  0.955  345.1  259.59  230.00  0.387   19255   -3097   18390      2.70  0.924   2577   -6.03  CR   
 80  292.30   75262  0.897  342.7  267.44  230.00  0.401   19255   -2824   18406      2.65  0.919   2606   -5.93  CR   
100  288.34   69682  0.842  340.4  275.63  230.00  0.417   19255   -2638   18408      2.59  0.913   2644   -5.84  CR   
120  284.38   64441  0.789  338.1  284.17  230.00  0.432   19255   -2510   18391      2.53  0.907   2687   -5.76  CR   
140  280.41   59524  0.739  335.7  293.08  230.00  0.449   19255   -2414   18348      2.47  0.901   2731   -5.69  CR   
160  276.45   54915  0.692  333.3  302.36  230.00  0.467   19255   -2331   18277      2.41  0.895   2773   -5.60  CR   
180  272.49   50600  0.647  330.9  312.05  230.00  0.485   19255   -2243   18180      2.37  0.888   2811   -5.51  CR   
200  268.53   46563  0.604  328.5  322.15  230.00  0.505   19255   -2137   18072      2.36  0.880   2844   -5.40  CR   
220  264.56   42791  0.563  326.1  332.70  230.00  0.525   19255   -2001   17988      2.38  0.872   2875   -5.30  CR   
240  260.60   39271  0.525  323.6  343.71  230.00  0.546   19255   -1824   17993      2.45  0.864   2913   -5.20  CR   
250  258.62   37601  0.506  322.4  344.67  226.75  0.550   19255   -1600   17581      2.52  1.039   3398   -6.06  CR   


High mass DESCENT
=================

 FL    T       p      rho     a      TAS     CAS     M     mass   Thrust    Drag     Fuel    ESF    ROCD   gamma Conf  Lim
[-]   [K]     [Pa]  [kg/m3] [m/s]   [kt]    [kt]    [-]    [kg]     [N]     [N]     [kgm]    [-]   [fpm]   [deg]  [-]     
  0  308.15  101325  1.145  351.9  120.28  116.31  0.176   22000   10142   21633      8.79  0.983    596   -3.00  LD   
  5  307.16   99508  1.129  351.3  121.17  116.31  0.177   22000   10139   21633      8.65  0.982    600   -3.00  LD   
 10  306.17   97717  1.112  350.8  127.31  121.31  0.187   22000   10235   21750      8.52  0.981    631   -3.00  LD   
 15  305.18   95952  1.095  350.2  138.83  131.31  0.204   22000   11063   22621      8.65  0.977    688   -3.00  LD   
 20  304.19   94213  1.079  349.6  171.79  161.31  0.253   22000   -6250   13858      2.77  0.965   1462   -5.16  CR   
 30  302.21   90812  1.047  348.5  237.62  220.00  0.351   22000   -3888   17878      2.68  0.936   2122   -5.42  CR   
 40  300.23   87511  1.015  347.4  241.13  220.00  0.357   22000   -3591   17885      2.67  0.934   2119   -5.33  CR   
 60  296.26   81200  0.955  345.1  259.59  230.00  0.387   22000   -3097   19048      2.70  0.924   2324   -5.44  CR   
 80  292.30   75262  0.897  342.7  267.44  230.00  0.401   22000   -2824   19050      2.65  0.919   2350   -5.34  CR   
100  288.34   69682  0.842  340.4  275.63  230.00  0.417   22000   -2638   19036      2.59  0.913   2383   -5.26  CR   
120  284.38   64441  0.789  338.1  284.17  230.00  0.432   22000   -2510   19001      2.53  0.907   2421   -5.19  CR   
140  280.41   59524  0.739  335.7  293.08  230.00  0.449   22000   -2414   18943      2.47  0.901   2459   -5.12  CR   
160  276.45   54915  0.692  333.3  302.36  230.00  0.467   22000   -2331   18859      2.41  0.895   2496   -5.04  CR   
180  272.49   50600  0.647  330.9  312.05  230.00  0.485   22000   -2243   18752      2.37  0.888   2529   -4.96  CR   
200  268.53   46563  0.604  328.5  322.15  230.00  0.505   22000   -2137   18637      2.36  0.880   2559   -4.86  CR   
220  264.56   42791  0.563  326.1  332.70  230.00  0.525   22000   -2001   18539      2.38  0.872   2586   -4.76  CR   
240  260.60   39271  0.525  323.6  343.71  230.00  0.546   22000   -1824   18492      2.45  0.864   2613   -4.66  CR   
250  258.62   37601  0.506  322.4  344.67  226.75  0.550   22000   -1600   18078      2.52  1.039   3051   -5.44  CR   


Low mass CRUISE
===============

 FL    T       p      rho     a      TAS     CAS     M     mass   Thrust    Drag     Fuel    ESF    ROCD   gamma Conf  Lim
[-]   [K]     [Pa]  [kg/m3] [m/s]   [kt]    [kt]    [-]    [kg]     [N]     [N]     [kgm]    [-]   [fpm]   [deg]  [-]     
  0  308.15  101325  1.145  351.9  155.12  150.00  0.227   15420   10102   10102      8.87  0.000      0    0.00  CR   
  5  307.16   99508  1.129  351.3  156.26  150.00  0.229   15420   10105   10105      8.77  0.000      0    0.00  CR   
 10  306.17   97717  1.112  350.8  157.41  150.00  0.231   15420   10109   10109      8.67  0.000      0    0.00  CR   
 15  305.18   95952  1.095  350.2  158.58  150.00  0.233   15420   10112   10112      8.58  0.000      0    0.00  CR   
 20  304.19   94213  1.079  349.6  159.75  150.00  0.235   15420   10116   10116      8.49  0.000      0    0.00  CR   
 30  302.21   90812  1.047  348.5  194.51  180.00  0.287   15420   12049   12049      9.76  0.000      0    0.00  CR   
 40  300.23   87511  1.015  347.4  197.42  180.00  0.292   15420   12054   12054      9.65  0.000      0    0.00  CR   
 60  296.26   81200  0.955  345.1  259.59  230.00  0.387   15420   17617   17617     13.80  0.000      0    0.00  CR   
 80  292.30   75262  0.897  342.7  267.44  230.00  0.401   15420   17651   17651     13.65  0.000      0    0.00  CR   T
100  288.34   69682  0.842  340.4  263.79  220.00  0.399   15420   16351   16351     12.50  0.000      0    0.00  CR   
120  284.38   64441  0.789  338.1  272.00  220.00  0.414   15420   16367   16367     12.38  0.000      0    0.00  CR   T
140  280.41   59524  0.739  335.7  280.56  220.00  0.430   15420   16366   16366     12.31  0.000      0    0.00  CR   T
160  276.45   54915  0.692  333.3  289.49  220.00  0.447   15420   16341   16341     12.32  0.000      0    0.00  CR   T
180  272.49   50600  0.647  330.9  289.46  212.95  0.450   15420   15459   15459     11.60  0.000      0    0.00  CR   T
200  268.53   46563  0.604  328.5  287.35  204.48  0.450   15420   14469   14469     10.76  0.000      0    0.00  CR   T
220  264.56   42791  0.563  326.1  285.22  196.21  0.450   15420   13566   13566     10.01  0.000      0    0.00  CR   T
240  260.60   39271  0.525  323.6  283.08  188.13  0.450   15420   12747   12747      9.34  0.000      0    0.00  CR   T
250  258.62   37601  0.506  322.4  282.00  184.16  0.450   15420   12369   12369      9.03  0.000      0    0.00  CR   T


Medium mass CRUISE
==================

 FL    T       p      rho     a      TAS     CAS     M     mass   Thrust    Drag     Fuel    ESF    ROCD   gamma Conf  Lim
[-]   [K]     [Pa]  [kg/m3] [m/s]   [kt]    [kt]    [-]    [kg]     [N]     [N]     [kgm]    [-]   [fpm]   [deg]  [-]     
  0  308.15  101325  1.145  351.9  155.12  150.00  0.227   19255   12037   12037      9.46  0.000      0    0.00  CR   
  5  307.16   99508  1.129  351.3  156.26  150.00  0.229   19255   12043   12043      9.36  0.000      0    0.00  CR   
 10  306.17   97717  1.112  350.8  157.41  150.00  0.231   19255   12050   12050      9.27  0.000      0    0.00  CR   
 15  305.18   95952  1.095  350.2  158.58  150.00  0.233   19255   12056   12056      9.19  0.000      0    0.00  CR   
 20  304.19   94213  1.079  349.6  159.75  150.00  0.235   19255   12063   12063      9.10  0.000      0    0.00  CR   
 30  302.21   90812  1.047  348.5  194.51  180.00  0.287   19255   13424   13424     10.28  0.000      0    0.00  CR   
 40  300.23   87511  1.015  347.4  197.42  180.00  0.292   19255   13429   13429     10.18  0.000      0    0.00  CR   
 60  296.26   81200  0.955  345.1  259.59  230.00  0.387   19255   18390   18390     14.15  0.000      0    0.00  CR   T
 80  292.30   75262  0.897  342.7  267.44  230.00  0.401   19255   18406   18406     14.01  0.000      0    0.00  CR   T
100  288.34   69682  0.842  340.4  263.79  220.00  0.399   19255   17183   17183     12.89  0.000      0    0.00  CR   T
120  284.38   64441  0.789  338.1  272.00  220.00  0.414   19255   17178   17178     12.80  0.000      0    0.00  CR   T
140  280.41   59524  0.739  335.7  280.56  220.00  0.430   19255   17155   17155     12.78  0.000      0    0.00  CR   T
160  276.45   54915  0.692  333.3  289.49  220.00  0.447   19255   17109   17109     12.85  0.000      0    0.00  CR   T
180  272.49   50600  0.647  330.9  289.46  212.95  0.450   19255   16277   16277     12.19  0.000      0    0.00  CR   T
200  268.53   46563  0.604  328.5  287.35  204.48  0.450   19255   15358   15358     11.43  0.000      0    0.00  CR   T
220  264.56   42791  0.563  326.1  285.22  196.21  0.450   19255   14533   14533     10.76  0.000      0    0.00  CR   T
240  260.60   39271  0.525  323.6  283.08  188.13  0.450   19255   13800   13800     10.20  0.000      0    0.00  CR   T
250  258.62   37601  0.506  322.4  282.00  184.16  0.450   19255   13469   13469      9.95  0.000      0    0.00  CR   T


High mass CRUISE
================

 FL    T       p      rho     a      TAS     CAS     M     mass   Thrust    Drag     Fuel    ESF    ROCD   gamma Conf  Lim
[-]   [K]     [Pa]  [kg/m3] [m/s]   [kt]    [kt]    [-]    [kg]     [N]     [N]     [kgm]    [-]   [fpm]   [deg]  [-]     
  0  308.15  101325  1.145  351.9  155.12  150.00  0.227   22000   13684   13684      9.96  0.000      0    0.00  CR   
  5  307.16   99508  1.129  351.3  156.26  150.00  0.229   22000   13693   13693      9.87  0.000      0    0.00  CR   
 10  306.17   97717  1.112  350.8  157.41  150.00  0.231   22000   13702   13702      9.79  0.000      0    0.00  CR   
 15  305.18   95952  1.095  350.2  158.58  150.00  0.233   22000   13712   13712      9.71  0.000      0    0.00  CR   
 20  304.19   94213  1.079  349.6  159.75  150.00  0.235   22000   13721   13721      9.63  0.000      0    0.00  CR   
 30  302.21   90812  1.047  348.5  194.51  180.00  0.287   22000   14595   14595     10.73  0.000      0    0.00  CR   
 40  300.23   87511  1.015  347.4  197.42  180.00  0.292   22000   14601   14601     10.63  0.000      0    0.00  CR   
 60  296.26   81200  0.955  345.1  259.59  230.00  0.387   22000   19048   19048     14.46  0.000      0    0.00  CR   T
 80  292.30   75262  0.897  342.7  267.44  230.00  0.401   22000   19050   19050     14.33  0.000      0    0.00  CR   T
100  288.34   69682  0.842  340.4  263.79  220.00  0.399   22000   17891   17891     13.24  0.000      0    0.00  CR   T
120  284.38   64441  0.789  338.1  272.00  220.00  0.414   22000   17868   17868     13.17  0.000      0    0.00  CR   T
140  280.41   59524  0.739  335.7  280.56  220.00  0.430   22000   17827   17827     13.19  0.000      0    0.00  CR   T
160  276.45   54915  0.692  333.3  289.49  220.00  0.447   22000   17763   17763     13.34  0.000      0    0.00  CR   T
180  272.49   50600  0.647  330.9  289.46  212.95  0.450   22000   16973   16973     12.74  0.000      0    0.00  CR   T
200  268.53   46563  0.604  328.5  287.35  204.48  0.450   22000   16114   16114     12.05  0.000      0    0.00  CR   T
220  264.56   42791  0.563  326.1  285.22  196.21  0.450   22000   15356   15356     11.48  0.000      0    0.00  CR   T
240  260.60   39271  0.525  323.6  283.08  188.13  0.450   22000   14697   14697     11.03  0.000      0    0.00  CR   T
250  258.62   37601  0.506  322.4  282.00  184.16  0.450   22000   14406   14406     10.86  0.000      0    0.00  CR   T
