BADA PERFORMANCE FILE RESULTS
=============================
=============================

Low mass CLIMB
==============

 FL    T       p      rho     a      TAS     CAS     M     mass   Thrust    Drag     Fuel    ESF    ROCD   gamma Conf  Lim
[-]   [K]     [Pa]  [kg/m3] [m/s]   [kt]    [kt]    [-]    [kg]     [N]     [N]     [kgm]    [-]   [fpm]   [deg]  [-]     
  0  288.15  101325  1.225  340.3  111.27  111.27  0.168   11520   31127    7628     12.62  0.984   2307   11.81  TO   
  5  287.16   99508  1.207  339.7  122.15  121.27  0.185   11520   29393    6983     12.61  0.981   2408   11.22  IC   
 10  286.17   97717  1.190  339.1  128.11  126.27  0.194   11520   28474    7027     12.54  0.979   2412   10.71  IC   
 15  285.18   95952  1.172  338.5  163.50  160.00  0.248   11520   23969    8214     12.38  0.967   2232    7.75  IC   
 20  284.19   94213  1.155  337.9  164.70  160.00  0.251   11520   23809    8220     12.30  0.966   2224    7.66  CR   
 30  282.21   90812  1.121  336.8  167.12  160.00  0.255   11520   23490    8232     12.15  0.965   2206    7.49  CR   
 40  280.23   87511  1.088  335.6  169.59  160.00  0.260   11520   23173    8243     12.00  0.964   2188    7.32  CR   
 60  276.26   81200  1.024  333.2  174.70  160.00  0.270   11520   22546    8266     11.73  0.961   2150    6.98  CR   
 80  272.30   75262  0.963  330.8  180.02  160.00  0.280   11520   21927    8287     11.49  0.958   2110    6.64  CR   
100  268.34   69682  0.905  328.4  185.59  160.00  0.291   11520   21316    8305     11.29  0.955   2068    6.32  CR   
120  264.38   64441  0.849  326.0  191.39  160.00  0.302   11520   20248    8321     10.89  0.952   1948    5.77  CR   
140  260.41   59524  0.796  323.5  197.46  160.00  0.314   11520   18912    8332     10.36  0.949   1776    5.10  CR   
160  256.45   54915  0.746  321.0  203.81  160.00  0.327   11520   17629    8338      9.85  0.945   1604    4.46  CR   
180  252.49   50600  0.698  318.5  210.44  160.00  0.340   11520   16399    8338      9.37  0.941   1430    3.85  CR   
200  248.53   46563  0.653  316.0  217.38  160.00  0.354   11520   15223    8332      8.91  0.936   1257    3.27  CR   
220  244.56   42791  0.610  313.5  224.65  160.00  0.369   11520   14102    8318      8.48  0.931   1084    2.73  CR   
240  240.60   39271  0.569  311.0  232.26  160.00  0.384   11520   13035    8298      8.06  0.926    913    2.23  CR   
250  238.62   37601  0.549  309.7  236.19  160.00  0.392   11520   12523    8286      7.86  0.923    828    1.98  CR   


Medium mass CLIMB
=================

 FL    T       p      rho     a      TAS     CAS     M     mass   Thrust    Drag     Fuel    ESF    ROCD   gamma Conf  Lim
[-]   [K]     [Pa]  [kg/m3] [m/s]   [kt]    [kt]    [-]    [kg]     [N]     [N]     [kgm]    [-]   [fpm]   [deg]  [-]     
  0  288.15  101325  1.225  340.3  122.64  122.64  0.185   14570   29374    9632     12.68  0.981   1684    7.79  TO   
  5  287.16   99508  1.207  339.7  133.61  132.64  0.202   14570   27754    8936     12.61  0.978   1742    7.40  IC   
 10  286.17   97717  1.190  339.1  139.65  137.64  0.212   14570   26895    8946     12.53  0.976   1733    7.04  IC   
 15  285.18   95952  1.172  338.5  163.50  160.00  0.248   14570   23969    9467     12.38  0.967   1625    5.63  IC   
 20  284.19   94213  1.155  337.9  164.70  160.00  0.251   14570   23809    9473     12.30  0.966   1617    5.56  CR   
 30  282.21   90812  1.121  336.8  167.12  160.00  0.255   14570   23490    9484     12.15  0.965   1601    5.43  CR   
 40  280.23   87511  1.088  335.6  169.59  160.00  0.260   14570   23173    9494     12.00  0.964   1585    5.29  CR   
 60  276.26   81200  1.024  333.2  174.70  160.00  0.270   14570   22546    9512     11.73  0.961   1551    5.03  CR   
 80  272.30   75262  0.963  330.8  180.02  160.00  0.280   14570   21927    9525     11.49  0.958   1517    4.77  CR   
100  268.34   69682  0.905  328.4  185.59  160.00  0.291   14570   21316    9533     11.29  0.955   1481    4.52  CR   
120  264.38   64441  0.849  326.0  191.39  160.00  0.302   14570   20248    9535     10.89  0.952   1384    4.09  CR   
140  260.41   59524  0.796  323.5  197.46  160.00  0.314   14570   18912    9529     10.36  0.949   1246    3.57  CR   
160  256.45   54915  0.746  321.0  203.81  160.00  0.327   14570   17629    9515      9.85  0.945   1107    3.08  CR   
180  252.49   50600  0.698  318.5  210.44  160.00  0.340   14570   16399    9491      9.37  0.941    969    2.61  CR   
200  248.53   46563  0.653  316.0  217.38  160.00  0.354   14570   15223    9458      8.91  0.936    831    2.16  CR   
220  244.56   42791  0.610  313.5  224.65  160.00  0.369   14570   14102    9417      8.48  0.931    695    1.75  CR   
240  240.60   39271  0.569  311.0  232.26  160.00  0.384   14570   13035    9371      8.06  0.926    558    1.36  CR   
250  238.62   37601  0.549  309.7  236.19  160.00  0.392   14570   12523    9348      7.86  0.923    491    1.18  CR   


High mass CLIMB
===============

 FL    T       p      rho     a      TAS     CAS     M     mass   Thrust    Drag     Fuel    ESF    ROCD   gamma Conf  Lim
[-]   [K]     [Pa]  [kg/m3] [m/s]   [kt]    [kt]    [-]    [kg]     [N]     [N]     [kgm]    [-]   [fpm]   [deg]  [-]     
  0  288.15  101325  1.225  340.3  129.89  129.89  0.196   16700   28321   11041     12.69  0.979   1359    5.93  TO   
  5  287.16   99508  1.207  339.7  140.90  139.89  0.213   16700   26772   10322     12.60  0.975   1398    5.62  IC   
 10  286.17   97717  1.190  339.1  147.00  144.89  0.223   16700   25951   10307     12.51  0.973   1384    5.33  IC   
 15  285.18   95952  1.172  338.5  163.50  160.00  0.248   16700   23969   10516     12.38  0.967   1315    4.56  IC   
 20  284.19   94213  1.155  337.9  164.70  160.00  0.251   16700   23809   10522     12.30  0.966   1307    4.50  CR   
 30  282.21   90812  1.121  336.8  167.12  160.00  0.255   16700   23490   10532     12.15  0.965   1292    4.38  CR   
 40  280.23   87511  1.088  335.6  169.59  160.00  0.260   16700   23173   10541     12.00  0.964   1277    4.26  CR   
 60  276.26   81200  1.024  333.2  174.70  160.00  0.270   16700   22546   10554     11.73  0.961   1245    4.04  CR   
 80  272.30   75262  0.963  330.8  180.02  160.00  0.280   16700   21927   10562     11.49  0.958   1213    3.81  CR   
100  268.34   69682  0.905  328.4  185.59  160.00  0.291   16700   21316   10561     11.29  0.955   1179    3.60  CR   
120  264.38   64441  0.849  326.0  191.39  160.00  0.302   16700   20248   10551     10.89  0.952   1093    3.23  CR   
140  260.41   59524  0.796  323.5  197.46  160.00  0.314   16700   18912   10531     10.36  0.949    971    2.78  CR   
160  256.45   54915  0.746  321.0  203.81  160.00  0.327   16700   17629   10499      9.85  0.945    849    2.36  CR   
180  252.49   50600  0.698  318.5  210.44  160.00  0.340   16700   16399   10455      9.37  0.941    727    1.96  CR   
200  248.53   46563  0.653  316.0  217.38  160.00  0.354   16700   15223   10400      8.91  0.936    607    1.58  CR   
220  244.56   42791  0.610  313.5  224.65  160.00  0.369   16700   14102   10337      8.48  0.931    487    1.23  CR   
240  240.60   39271  0.569  311.0  232.26  160.00  0.384   16700   13035   10269      8.06  0.926    368    0.90  CR   
250  238.62   37601  0.549  309.7  236.19  160.00  0.392   16700   12523   10236      7.86  0.923    308    0.74  CR   


Low mass DESCENT
================

 FL    T       p      rho     a      TAS     CAS     M     mass   Thrust    Drag     Fuel    ESF    ROCD   gamma Conf  Lim
[-]   [K]     [Pa]  [kg/m3] [m/s]   [kt]    [kt]    [-]    [kg]     [N]     [N]     [kgm]    [-]   [fpm]   [deg]  [-]     
  0  288.15  101325  1.225  340.3   81.32   81.32  0.123   11520    8074   14037      6.46  0.992    431   -3.00  LD   
  5  287.16   99508  1.207  339.7   81.91   81.32  0.124   11520    8073   14037      6.35  0.991    434   -3.00  LD   
 10  286.17   97717  1.190  339.1   87.59   86.32  0.133   11520    8083   14054      6.25  0.990    464   -3.00  LD   
 15  285.18   95952  1.172  338.5   98.45   96.32  0.150   11520    2923    8910      5.40  0.988    522   -3.00  AP   
 20  284.19   94213  1.155  337.9  130.05  126.32  0.198   11520   -7586    7040      3.14  0.979   1668   -7.28  CR   
 30  282.21   90812  1.121  336.8  229.62  220.00  0.351   11520   -5762   13332      2.70  0.937   3683   -9.11  CR   
 40  280.23   87511  1.088  335.6  232.96  220.00  0.357   11520   -5696   13351      2.64  0.935   3719   -9.07  CR   
 60  276.26   81200  1.024  333.2  239.84  220.00  0.370   11520   -5498   13383      2.59  0.931   3777   -8.95  CR   
 80  272.30   75262  0.963  330.8  247.01  220.00  0.384   11520   -5238   13401      2.57  0.926   3821   -8.79  CR   
100  268.34   69682  0.905  328.4  254.48  220.00  0.399   11520   -4942   13404      2.59  0.921   3854   -8.60  CR   
120  264.38   64441  0.849  326.0  262.26  220.00  0.414   11520   -4626   13388      2.63  0.916   3877   -8.39  CR   
140  260.41   59524  0.796  323.5  270.37  220.00  0.430   11520   -4296   13352      2.67  0.910   3891   -8.17  CR   
160  256.45   54915  0.746  321.0  278.83  220.00  0.447   11520   -3952   13299      2.71  0.904   3896   -7.93  CR   
180  252.49   50600  0.698  318.5  287.64  220.00  0.465   11520   -3586   13238      2.74  0.897   3892   -7.68  CR   
200  248.53   46563  0.653  316.0  296.84  220.00  0.483   11520   -3188   13191      2.75  0.890   3879   -7.41  CR   
220  244.56   42791  0.610  313.5  306.44  220.00  0.503   11520   -2739   13198      2.73  0.883   3864   -7.15  CR   
240  240.60   39271  0.569  311.0  316.44  220.00  0.524   11520   -2218   13318      2.69  0.875   3855   -6.91  CR   
250  238.62   37601  0.549  309.7  321.61  220.00  0.534   11520   -1922   13444      2.65  0.871   3856   -6.80  CR   


Medium mass DESCENT
===================

 FL    T       p      rho     a      TAS     CAS     M     mass   Thrust    Drag     Fuel    ESF    ROCD   gamma Conf  Lim
[-]   [K]     [Pa]  [kg/m3] [m/s]   [kt]    [kt]    [-]    [kg]     [N]     [N]     [kgm]    [-]   [fpm]   [deg]  [-]     
  0  288.15  101325  1.225  340.3   90.83   90.83  0.137   14570   10216   17774      6.79  0.989    481   -3.00  LD   
  5  287.16   99508  1.207  339.7   91.49   90.83  0.139   14570   10215   17774      6.70  0.989    485   -3.00  LD   
 10  286.17   97717  1.190  339.1   97.24   95.83  0.148   14570   10171   17740      6.64  0.988    515   -3.00  LD   
 15  285.18   95952  1.172  338.5  108.17  105.83  0.164   14570    3758   11349      5.48  0.985    573   -3.00  AP   
 20  284.19   94213  1.155  337.9  139.83  135.83  0.213   14570   -7247    8955      3.16  0.975   1566   -6.35  CR   
 30  282.21   90812  1.121  336.8  229.62  220.00  0.351   14570   -5762   13923      2.70  0.937   3002   -7.42  CR   
 40  280.23   87511  1.088  335.6  232.96  220.00  0.357   14570   -5696   13936      2.64  0.935   3031   -7.38  CR   
 60  276.26   81200  1.024  333.2  239.84  220.00  0.370   14570   -5498   13955      2.59  0.931   3077   -7.28  CR   
 80  272.30   75262  0.963  330.8  247.01  220.00  0.384   14570   -5238   13961      2.57  0.926   3112   -7.15  CR   
100  268.34   69682  0.905  328.4  254.48  220.00  0.399   14570   -4942   13954      2.59  0.921   3139   -7.00  CR   
120  264.38   64441  0.849  326.0  262.26  220.00  0.414   14570   -4626   13932      2.63  0.916   3158   -6.83  CR   
140  260.41   59524  0.796  323.5  270.37  220.00  0.430   14570   -4296   13895      2.67  0.910   3171   -6.65  CR   
160  256.45   54915  0.746  321.0  278.83  220.00  0.447   14570   -3952   13846      2.71  0.904   3178   -6.46  CR   
180  252.49   50600  0.698  318.5  287.64  220.00  0.465   14570   -3586   13793      2.74  0.897   3179   -6.26  CR   
200  248.53   46563  0.653  316.0  296.84  220.00  0.483   14570   -3188   13745      2.75  0.890   3171   -6.06  CR   
220  244.56   42791  0.610  313.5  306.44  220.00  0.503   14570   -2739   13708      2.73  0.883   3153   -5.83  CR   
240  240.60   39271  0.569  311.0  316.44  220.00  0.524   14570   -2218   13656      2.69  0.875   3114   -5.58  CR   
250  238.62   37601  0.549  309.7  321.61  220.00  0.534   14570   -1922   13593      2.65  0.871   3079   -5.42  CR   


High mass DESCENT
=================

 FL    T       p      rho     a      TAS     CAS     M     mass   Thrust    Drag     Fuel    ESF    ROCD   gamma Conf  Lim
[-]   [K]     [Pa]  [kg/m3] [m/s]   [kt]    [kt]    [-]    [kg]     [N]     [N]     [kgm]    [-]   [fpm]   [deg]  [-]     
  0  288.15  101325  1.225  340.3   96.89   96.89  0.146   16700   11712   20386      7.11  0.988    513   -3.00  LD   
  5  287.16   99508  1.207  339.7   97.59   96.89  0.148   16700   11710   20387      7.02  0.988    517   -3.00  LD   
 10  286.17   97717  1.190  339.1  103.38  101.89  0.157   16700   11630   20320      6.99  0.986    548   -3.00  LD   
 15  285.18   95952  1.172  338.5  114.36  111.89  0.174   16700    4360   13077      5.58  0.983    606   -3.00  AP   
 20  284.19   94213  1.155  337.9  146.07  141.89  0.222   16700   -7050   10331      3.17  0.973   1528   -5.93  CR   
 30  282.21   90812  1.121  336.8  229.62  220.00  0.351   16700   -5762   14417      2.70  0.937   2685   -6.63  CR   
 40  280.23   87511  1.088  335.6  232.96  220.00  0.357   16700   -5696   14425      2.64  0.935   2710   -6.60  CR   
 60  276.26   81200  1.024  333.2  239.84  220.00  0.370   16700   -5498   14434      2.59  0.931   2751   -6.50  CR   
 80  272.30   75262  0.963  330.8  247.01  220.00  0.384   16700   -5238   14430      2.57  0.926   2782   -6.38  CR   
100  268.34   69682  0.905  328.4  254.48  220.00  0.399   16700   -4942   14415      2.59  0.921   2805   -6.25  CR   
120  264.38   64441  0.849  326.0  262.26  220.00  0.414   16700   -4626   14387      2.63  0.916   2823   -6.10  CR   
140  260.41   59524  0.796  323.5  270.37  220.00  0.430   16700   -4296   14349      2.67  0.910   2836   -5.95  CR   
160  256.45   54915  0.746  321.0  278.83  220.00  0.447   16700   -3952   14304      2.71  0.904   2844   -5.78  CR   
180  252.49   50600  0.698  318.5  287.64  220.00  0.465   16700   -3586   14258      2.74  0.897   2847   -5.61  CR   
200  248.53   46563  0.653  316.0  296.84  220.00  0.483   16700   -3188   14208      2.75  0.890   2842   -5.43  CR   
220  244.56   42791  0.610  313.5  306.44  220.00  0.503   16700   -2739   14134      2.73  0.883   2822   -5.22  CR   
240  240.60   39271  0.569  311.0  316.44  220.00  0.524   16700   -2218   13939      2.69  0.875   2765   -4.95  CR   
250  238.62   37601  0.549  309.7  321.61  220.00  0.534   16700   -1922   13718      2.65  0.871   2708   -4.77  CR   


Low mass CRUISE
===============

 FL    T       p      rho     a      TAS     CAS     M     mass   Thrust    Drag     Fuel    ESF    ROCD   gamma Conf  Lim
[-]   [K]     [Pa]  [kg/m3] [m/s]   [kt]    [kt]    [-]    [kg]     [N]     [N]     [kgm]    [-]   [fpm]   [deg]  [-]     
  0  288.15  101325  1.225  340.3  150.00  150.00  0.227   11520    7699    7699      6.90  0.000      0    0.00  CR   
  5  287.16   99508  1.207  339.7  151.09  150.00  0.229   11520    7705    7705      6.83  0.000      0    0.00  CR   
 10  286.17   97717  1.190  339.1  152.18  150.00  0.231   11520    7711    7711      6.75  0.000      0    0.00  CR   
 15  285.18   95952  1.172  338.5  153.29  150.00  0.233   11520    7716    7716      6.68  0.000      0    0.00  CR   
 20  284.19   94213  1.155  337.9  154.41  150.00  0.235   11520    7722    7722      6.61  0.000      0    0.00  CR   
 30  282.21   90812  1.121  336.8  187.97  180.00  0.287   11520    9552    9552      7.71  0.000      0    0.00  CR   
 40  280.23   87511  1.088  335.6  190.73  180.00  0.292   11520    9567    9567      7.61  0.000      0    0.00  CR   
 60  276.26   81200  1.024  333.2  250.67  230.00  0.387   11520   14516   14516     11.10  0.000      0    0.00  CR   
 80  272.30   75262  0.963  330.8  258.13  230.00  0.401   11520   14518   14518     11.02  0.000      0    0.00  CR   
100  268.34   69682  0.905  328.4  243.03  210.00  0.381   11520   12358   12358      9.21  0.000      0    0.00  CR   
120  264.38   64441  0.849  326.0  250.50  210.00  0.395   11520   12360   12360      9.14  0.000      0    0.00  CR   
140  260.41   59524  0.796  323.5  258.28  210.00  0.411   11520   12347   12347      9.09  0.000      0    0.00  CR   
160  256.45   54915  0.746  321.0  266.40  210.00  0.427   11520   12316   12316      9.07  0.000      0    0.00  CR   
180  252.49   50600  0.698  318.5  274.87  210.00  0.444   11520   12271   12271      9.07  0.000      0    0.00  CR   
200  248.53   46563  0.653  316.0  276.44  204.48  0.450   11520   11712   11712      8.61  0.000      0    0.00  CR   
220  244.56   42791  0.610  313.5  274.23  196.21  0.450   11520   10943   10943      7.95  0.000      0    0.00  CR   
240  240.60   39271  0.569  311.0  272.00  188.13  0.450   11520   10242   10242      7.35  0.000      0    0.00  CR   
250  238.62   37601  0.549  309.7  270.88  184.16  0.450   11520    9916    9916      7.07  0.000      0    0.00  CR   


Medium mass CRUISE
==================

 FL    T       p      rho     a      TAS     CAS     M     mass   Thrust    Drag     Fuel    ESF    ROCD   gamma Conf  Lim
[-]   [K]     [Pa]  [kg/m3] [m/s]   [kt]    [kt]    [-]    [kg]     [N]     [N]     [kgm]    [-]   [fpm]   [deg]  [-]     
  0  288.15  101325  1.225  340.3  150.00  150.00  0.227   14570    9125    9125      7.29  0.000      0    0.00  CR   
  5  287.16   99508  1.207  339.7  151.09  150.00  0.229   14570    9131    9131      7.21  0.000      0    0.00  CR   
 10  286.17   97717  1.190  339.1  152.18  150.00  0.231   14570    9138    9138      7.14  0.000      0    0.00  CR   
 15  285.18   95952  1.172  338.5  153.29  150.00  0.233   14570    9144    9144      7.08  0.000      0    0.00  CR   
 20  284.19   94213  1.155  337.9  154.41  150.00  0.235   14570    9150    9150      7.01  0.000      0    0.00  CR   
 30  282.21   90812  1.121  336.8  187.97  180.00  0.287   14570   10521   10521      8.03  0.000      0    0.00  CR   
 40  280.23   87511  1.088  335.6  190.73  180.00  0.292   14570   10532   10532      7.94  0.000      0    0.00  CR   
 60  276.26   81200  1.024  333.2  250.67  230.00  0.387   14570   15026   15026     11.31  0.000      0    0.00  CR   
 80  272.30   75262  0.963  330.8  258.13  230.00  0.401   14570   15019   15019     11.24  0.000      0    0.00  CR   
100  268.34   69682  0.905  328.4  243.03  210.00  0.381   14570   12977   12977      9.46  0.000      0    0.00  CR   
120  264.38   64441  0.849  326.0  250.50  210.00  0.395   14570   12968   12968      9.40  0.000      0    0.00  CR   
140  260.41   59524  0.796  323.5  258.28  210.00  0.411   14570   12946   12946      9.37  0.000      0    0.00  CR   
160  256.45   54915  0.746  321.0  266.40  210.00  0.427   14570   12913   12913      9.36  0.000      0    0.00  CR   
180  252.49   50600  0.698  318.5  274.87  210.00  0.444   14570   12872   12872      9.40  0.000      0    0.00  CR   T
200  248.53   46563  0.653  316.0  276.44  204.48  0.450   14570   12350   12350      8.98  0.000      0    0.00  CR   T
220  244.56   42791  0.610  313.5  274.23  196.21  0.450   14570   11637   11637      8.36  0.000      0    0.00  CR   T
240  240.60   39271  0.569  311.0  272.00  188.13  0.450   14570   10998   10998      7.80  0.000      0    0.00  CR   T
250  238.62   37601  0.549  309.7  270.88  184.16  0.450   14570   10706   10706      7.55  0.000      0    0.00  CR   T


High mass CRUISE
================

 FL    T       p      rho     a      TAS     CAS     M     mass   Thrust    Drag     Fuel    ESF    ROCD   gamma Conf  Lim
[-]   [K]     [Pa]  [kg/m3] [m/s]   [kt]    [kt]    [-]    [kg]     [N]     [N]     [kgm]    [-]   [fpm]   [deg]  [-]     
  0  288.15  101325  1.225  340.3  150.00  150.00  0.227   16700   10318   10318      7.62  0.000      0    0.00  CR   
  5  287.16   99508  1.207  339.7  151.09  150.00  0.229   16700   10325   10325      7.55  0.000      0    0.00  CR   
 10  286.17   97717  1.190  339.1  152.18  150.00  0.231   16700   10332   10332      7.48  0.000      0    0.00  CR   
 15  285.18   95952  1.172  338.5  153.29  150.00  0.233   16700   10339   10339      7.42  0.000      0    0.00  CR   
 20  284.19   94213  1.155  337.9  154.41  150.00  0.235   16700   10345   10345      7.36  0.000      0    0.00  CR   
 30  282.21   90812  1.121  336.8  187.97  180.00  0.287   16700   11333   11333      8.31  0.000      0    0.00  CR   
 40  280.23   87511  1.088  335.6  190.73  180.00  0.292   16700   11340   11340      8.21  0.000      0    0.00  CR   
 60  276.26   81200  1.024  333.2  250.67  230.00  0.387   16700   15452   15452     11.49  0.000      0    0.00  CR   
 80  272.30   75262  0.963  330.8  258.13  230.00  0.401   16700   15438   15438     11.43  0.000      0    0.00  CR   
100  268.34   69682  0.905  328.4  243.03  210.00  0.381   16700   13495   13495      9.68  0.000      0    0.00  CR   
120  264.38   64441  0.849  326.0  250.50  210.00  0.395   16700   13476   13476      9.63  0.000      0    0.00  CR   
140  260.41   59524  0.796  323.5  258.28  210.00  0.411   16700   13448   13448      9.61  0.000      0    0.00  CR   
160  256.45   54915  0.746  321.0  266.40  210.00  0.427   16700   13413   13413      9.62  0.000      0    0.00  CR   T
180  252.49   50600  0.698  318.5  274.87  210.00  0.444   16700   13375   13375      9.69  0.000      0    0.00  CR   T
200  248.53   46563  0.653  316.0  276.44  204.48  0.450   16700   12883   12883      9.31  0.000      0    0.00  CR   T
220  244.56   42791  0.610  313.5  274.23  196.21  0.450   16700   12218   12218      8.73  0.000      0    0.00  CR   T
240  240.60   39271  0.569  311.0  272.00  188.13  0.450   16700   11631   11631      8.22  0.000      0    0.00  CR   T
250  238.62   37601  0.549  309.7  270.88  184.16  0.450   16700   11367   11367      8.00  0.000      0    0.00  CR   T
