BADA PERFORMANCE FILE RESULTS
=============================
=============================

Low mass CLIMB
==============

 FL    T       p      rho     a      TAS     CAS     M     mass   Thrust    Drag     Fuel    ESF    ROCD   gamma Conf  Lim
[-]   [K]     [Pa]  [kg/m3] [m/s]   [kt]    [kt]    [-]    [kg]     [N]     [N]     [kgm]    [-]   [fpm]   [deg]  [-]     
  0  288.15  101325  1.225  340.3  111.27  111.27  0.168   11520   31126    7628     12.59  0.984   2307   11.81  TO   
  5  287.16   99508  1.207  339.7  122.15  121.27  0.185   11520   29391    6985     12.58  0.981   2407   11.22  IC   
 10  286.17   97717  1.190  339.1  128.11  126.27  0.194   11520   28473    7029     12.52  0.979   2412   10.71  IC   
 15  285.18   95952  1.172  338.5  163.50  160.00  0.248   11520   23968    8212     12.36  0.967   2233    7.75  IC   
 20  284.19   94213  1.155  337.9  164.70  160.00  0.251   11520   23808    8218     12.28  0.966   2224    7.66  CR   
 30  282.21   90812  1.121  336.8  167.12  160.00  0.255   11520   23489    8230     12.13  0.965   2206    7.49  CR   
 40  280.23   87511  1.088  335.6  169.59  160.00  0.260   11520   23172    8242     11.99  0.964   2188    7.32  CR   
 60  276.26   81200  1.024  333.2  174.70  160.00  0.270   11520   22545    8265     11.72  0.961   2149    6.98  CR   
 80  272.30   75262  0.963  330.8  180.02  160.00  0.280   11520   21925    8286     11.48  0.958   2110    6.64  CR   
100  268.34   69682  0.905  328.4  185.59  160.00  0.291   11520   21123    8304     11.18  0.955   2037    6.22  CR   
120  264.38   64441  0.849  326.0  191.39  160.00  0.302   11520   19713    8320     10.61  0.952   1861    5.51  CR   
140  260.41   59524  0.796  323.5  197.46  160.00  0.314   11520   18351    8331     10.07  0.949   1682    4.83  CR   
160  256.45   54915  0.746  321.0  203.81  160.00  0.327   11520   17041    8337      9.55  0.945   1502    4.17  CR   
180  252.49   50600  0.698  318.5  210.44  160.00  0.340   11520   15786    8337      9.06  0.941   1322    3.56  CR   
200  248.53   46563  0.653  316.0  217.38  160.00  0.354   11520   14589    8330      8.60  0.936   1142    2.97  CR   
220  244.56   42791  0.610  313.5  224.65  160.00  0.369   11520   13453    8316      8.16  0.931    963    2.43  CR   
240  240.60   39271  0.569  311.0  232.26  160.00  0.384   11520   12379    8296      7.74  0.926    787    1.92  CR   
250  238.62   37601  0.549  309.7  236.19  160.00  0.392   11520   11865    8284      7.53  0.923    700    1.68  CR   


Medium mass CLIMB
=================

 FL    T       p      rho     a      TAS     CAS     M     mass   Thrust    Drag     Fuel    ESF    ROCD   gamma Conf  Lim
[-]   [K]     [Pa]  [kg/m3] [m/s]   [kt]    [kt]    [-]    [kg]     [N]     [N]     [kgm]    [-]   [fpm]   [deg]  [-]     
  0  288.15  101325  1.225  340.3  122.64  122.64  0.185   14570   29373    9632     12.65  0.981   1683    7.79  TO   
  5  287.16   99508  1.207  339.7  133.61  132.64  0.202   14570   27752    8940     12.59  0.978   1741    7.40  IC   
 10  286.17   97717  1.190  339.1  139.65  137.64  0.212   14570   26894    8950     12.51  0.976   1733    7.04  IC   
 15  285.18   95952  1.172  338.5  163.50  160.00  0.248   14570   23968    9467     12.36  0.967   1625    5.63  IC   
 20  284.19   94213  1.155  337.9  164.70  160.00  0.251   14570   23808    9473     12.28  0.966   1617    5.56  CR   
 30  282.21   90812  1.121  336.8  167.12  160.00  0.255   14570   23489    9484     12.13  0.965   1601    5.43  CR   
 40  280.23   87511  1.088  335.6  169.59  160.00  0.260   14570   23172    9494     11.99  0.964   1585    5.29  CR   
 60  276.26   81200  1.024  333.2  174.70  160.00  0.270   14570   22545    9512     11.72  0.961   1551    5.03  CR   
 80  272.30   75262  0.963  330.8  180.02  160.00  0.280   14570   21925    9525     11.48  0.958   1516    4.77  CR   
100  268.34   69682  0.905  328.4  185.59  160.00  0.291   14570   21123    9533     11.18  0.955   1456    4.44  CR   
120  264.38   64441  0.849  326.0  191.39  160.00  0.302   14570   19713    9534     10.61  0.952   1315    3.89  CR   
140  260.41   59524  0.796  323.5  197.46  160.00  0.314   14570   18351    9527     10.07  0.949   1171    3.36  CR   
160  256.45   54915  0.746  321.0  203.81  160.00  0.327   14570   17041    9512      9.55  0.945   1027    2.85  CR   
180  252.49   50600  0.698  318.5  210.44  160.00  0.340   14570   15786    9487      9.06  0.941    884    2.38  CR   
200  248.53   46563  0.653  316.0  217.38  160.00  0.354   14570   14589    9454      8.60  0.936    741    1.93  CR   
220  244.56   42791  0.610  313.5  224.65  160.00  0.369   14570   13453    9413      8.16  0.931    599    1.51  CR   
240  240.60   39271  0.569  311.0  232.26  160.00  0.384   14570   12379    9367      7.74  0.926    459    1.12  CR   
250  238.62   37601  0.549  309.7  236.19  160.00  0.392   14570   11865    9345      7.53  0.923    390    0.93  CR   


High mass CLIMB
===============

 FL    T       p      rho     a      TAS     CAS     M     mass   Thrust    Drag     Fuel    ESF    ROCD   gamma Conf  Lim
[-]   [K]     [Pa]  [kg/m3] [m/s]   [kt]    [kt]    [-]    [kg]     [N]     [N]     [kgm]    [-]   [fpm]   [deg]  [-]     
  0  288.15  101325  1.225  340.3  129.89  129.89  0.196   16700   28319   11041     12.67  0.979   1358    5.93  TO   
  5  287.16   99508  1.207  339.7  140.90  139.89  0.213   16700   26770   10328     12.58  0.975   1397    5.62  IC   
 10  286.17   97717  1.190  339.1  147.00  144.89  0.223   16700   25950   10312     12.49  0.973   1383    5.33  IC   
 15  285.18   95952  1.172  338.5  163.50  160.00  0.248   16700   23968   10518     12.36  0.967   1315    4.55  IC   
 20  284.19   94213  1.155  337.9  164.70  160.00  0.251   16700   23808   10523     12.28  0.966   1307    4.50  CR   
 30  282.21   90812  1.121  336.8  167.12  160.00  0.255   16700   23489   10533     12.13  0.965   1292    4.38  CR   
 40  280.23   87511  1.088  335.6  169.59  160.00  0.260   16700   23172   10542     11.99  0.964   1277    4.26  CR   
 60  276.26   81200  1.024  333.2  174.70  160.00  0.270   16700   22545   10555     11.72  0.961   1245    4.04  CR   
 80  272.30   75262  0.963  330.8  180.02  160.00  0.280   16700   21925   10562     11.48  0.958   1212    3.81  CR   
100  268.34   69682  0.905  328.4  185.59  160.00  0.291   16700   21123   10561     11.18  0.955   1158    3.53  CR   
120  264.38   64441  0.849  326.0  191.39  160.00  0.302   16700   19713   10550     10.61  0.952   1033    3.05  CR   
140  260.41   59524  0.796  323.5  197.46  160.00  0.314   16700   18351   10529     10.07  0.949    906    2.60  CR   
160  256.45   54915  0.746  321.0  203.81  160.00  0.327   16700   17041   10496      9.55  0.945    779    2.16  CR   
180  252.49   50600  0.698  318.5  210.44  160.00  0.340   16700   15786   10451      9.06  0.941    653    1.76  CR   
200  248.53   46563  0.653  316.0  217.38  160.00  0.354   16700   14589   10395      8.60  0.936    528    1.37  CR   
220  244.56   42791  0.610  313.5  224.65  160.00  0.369   16700   13453   10331      8.16  0.931    404    1.02  CR   
240  240.60   39271  0.569  311.0  232.26  160.00  0.384   16700   12379   10264      7.74  0.926    281    0.69  CR   
250  238.62   37601  0.549  309.7  236.19  160.00  0.392   16700   11865   10232      7.53  0.923    220    0.53  CR   


Low mass DESCENT
================

 FL    T       p      rho     a      TAS     CAS     M     mass   Thrust    Drag     Fuel    ESF    ROCD   gamma Conf  Lim
[-]   [K]     [Pa]  [kg/m3] [m/s]   [kt]    [kt]    [-]    [kg]     [N]     [N]     [kgm]    [-]   [fpm]   [deg]  [-]     
  0  288.15  101325  1.225  340.3   81.32   81.32  0.123   11520    8074   14037      6.58  0.992    431   -3.00  LD   
  5  287.16   99508  1.207  339.7   81.91   81.32  0.124   11520    8073   14037      6.46  0.991    434   -3.00  LD   
 10  286.17   97717  1.190  339.1   87.59   86.32  0.133   11520    8083   14054      6.32  0.990    464   -3.00  LD   
 15  285.18   95952  1.172  338.5   98.45   96.32  0.150   11520    2923    8910      5.51  0.988    522   -3.00  AP   
 20  284.19   94213  1.155  337.9  130.05  126.32  0.198   11520   -7590    7041      3.14  0.979   1669   -7.28  CR   
 30  282.21   90812  1.121  336.8  229.62  220.00  0.351   11520   -5762   13333      2.70  0.937   3683   -9.11  CR   
 40  280.23   87511  1.088  335.6  232.96  220.00  0.357   11520   -5697   13352      2.64  0.935   3719   -9.07  CR   
 60  276.26   81200  1.024  333.2  239.84  220.00  0.370   11520   -5499   13383      2.59  0.931   3778   -8.95  CR   
 80  272.30   75262  0.963  330.8  247.01  220.00  0.384   11520   -5240   13401      2.57  0.926   3822   -8.79  CR   
100  268.34   69682  0.905  328.4  254.48  220.00  0.399   11520   -4945   13402      2.59  0.921   3854   -8.60  CR   
120  264.38   64441  0.849  326.0  262.26  220.00  0.414   11520   -4629   13385      2.63  0.916   3877   -8.39  CR   
140  260.41   59524  0.796  323.5  270.37  220.00  0.430   11520   -4299   13347      2.67  0.910   3891   -8.17  CR   
160  256.45   54915  0.746  321.0  278.83  220.00  0.447   11520   -3954   13293      2.71  0.904   3896   -7.93  CR   
180  252.49   50600  0.698  318.5  287.64  220.00  0.465   11520   -3589   13232      2.74  0.897   3891   -7.68  CR   
200  248.53   46563  0.653  316.0  296.84  220.00  0.483   11520   -3190   13186      2.75  0.890   3879   -7.41  CR   
220  244.56   42791  0.610  313.5  306.44  220.00  0.503   11520   -2740   13196      2.73  0.883   3864   -7.15  CR   
240  240.60   39271  0.569  311.0  316.44  220.00  0.524   11520   -2217   13319      2.69  0.875   3855   -6.91  CR   
250  238.62   37601  0.549  309.7  321.61  220.00  0.534   11520   -1920   13447      2.65  0.871   3857   -6.80  CR   


Medium mass DESCENT
===================

 FL    T       p      rho     a      TAS     CAS     M     mass   Thrust    Drag     Fuel    ESF    ROCD   gamma Conf  Lim
[-]   [K]     [Pa]  [kg/m3] [m/s]   [kt]    [kt]    [-]    [kg]     [N]     [N]     [kgm]    [-]   [fpm]   [deg]  [-]     
  0  288.15  101325  1.225  340.3   90.83   90.83  0.137   14570   10216   17774      6.83  0.989    481   -3.00  LD   
  5  287.16   99508  1.207  339.7   91.49   90.83  0.139   14570   10215   17774      6.72  0.989    485   -3.00  LD   
 10  286.17   97717  1.190  339.1   97.24   95.83  0.148   14570   10171   17740      6.64  0.988    515   -3.00  LD   
 15  285.18   95952  1.172  338.5  108.17  105.83  0.164   14570    3758   11349      5.54  0.985    573   -3.00  AP   
 20  284.19   94213  1.155  337.9  139.83  135.83  0.213   14570   -7250    8959      3.16  0.975   1567   -6.35  CR   
 30  282.21   90812  1.121  336.8  229.62  220.00  0.351   14570   -5762   13922      2.70  0.937   3002   -7.42  CR   
 40  280.23   87511  1.088  335.6  232.96  220.00  0.357   14570   -5697   13936      2.64  0.935   3031   -7.38  CR   
 60  276.26   81200  1.024  333.2  239.84  220.00  0.370   14570   -5499   13954      2.59  0.931   3077   -7.28  CR   
 80  272.30   75262  0.963  330.8  247.01  220.00  0.384   14570   -5240   13960      2.57  0.926   3112   -7.15  CR   
100  268.34   69682  0.905  328.4  254.48  220.00  0.399   14570   -4945   13952      2.59  0.921   3139   -7.00  CR   
120  264.38   64441  0.849  326.0  262.26  220.00  0.414   14570   -4629   13929      2.63  0.916   3158   -6.83  CR   
140  260.41   59524  0.796  323.5  270.37  220.00  0.430   14570   -4299   13892      2.67  0.910   3171   -6.65  CR   
160  256.45   54915  0.746  321.0  278.83  220.00  0.447   14570   -3954   13844      2.71  0.904   3179   -6.46  CR   
180  252.49   50600  0.698  318.5  287.64  220.00  0.465   14570   -3589   13793      2.74  0.897   3179   -6.27  CR   
200  248.53   46563  0.653  316.0  296.84  220.00  0.483   14570   -3190   13748      2.75  0.890   3172   -6.06  CR   
220  244.56   42791  0.610  313.5  306.44  220.00  0.503   14570   -2740   13713      2.73  0.883   3154   -5.83  CR   
240  240.60   39271  0.569  311.0  316.44  220.00  0.524   14570   -2217   13660      2.69  0.875   3115   -5.58  CR   
250  238.62   37601  0.549  309.7  321.61  220.00  0.534   14570   -1920   13591      2.65  0.871   3078   -5.42  CR   


High mass DESCENT
=================

 FL    T       p      rho     a      TAS     CAS     M     mass   Thrust    Drag     Fuel    ESF    ROCD   gamma Conf  Lim
[-]   [K]     [Pa]  [kg/m3] [m/s]   [kt]    [kt]    [-]    [kg]     [N]     [N]     [kgm]    [-]   [fpm]   [deg]  [-]     
  0  288.15  101325  1.225  340.3   96.89   96.89  0.146   16700   11712   20386      7.10  0.988    513   -3.00  LD   
  5  287.16   99508  1.207  339.7   97.59   96.89  0.148   16700   11710   20387      7.01  0.988    517   -3.00  LD   
 10  286.17   97717  1.190  339.1  103.38  101.89  0.157   16700   11630   20320      6.96  0.986    548   -3.00  LD   
 15  285.18   95952  1.172  338.5  114.36  111.89  0.174   16700    4360   13077      5.61  0.983    606   -3.00  AP   
 20  284.19   94213  1.155  337.9  146.07  141.89  0.222   16700   -7053   10336      3.17  0.973   1528   -5.93  CR   
 30  282.21   90812  1.121  336.8  229.62  220.00  0.351   16700   -5762   14416      2.70  0.937   2685   -6.63  CR   
 40  280.23   87511  1.088  335.6  232.96  220.00  0.357   16700   -5697   14424      2.64  0.935   2710   -6.60  CR   
 60  276.26   81200  1.024  333.2  239.84  220.00  0.370   16700   -5499   14432      2.59  0.931   2751   -6.50  CR   
 80  272.30   75262  0.963  330.8  247.01  220.00  0.384   16700   -5240   14428      2.57  0.926   2782   -6.38  CR   
100  268.34   69682  0.905  328.4  254.48  220.00  0.399   16700   -4945   14412      2.59  0.921   2805   -6.25  CR   
120  264.38   64441  0.849  326.0  262.26  220.00  0.414   16700   -4629   14385      2.63  0.916   2823   -6.10  CR   
140  260.41   59524  0.796  323.5  270.37  220.00  0.430   16700   -4299   14348      2.67  0.910   2836   -5.95  CR   
160  256.45   54915  0.746  321.0  278.83  220.00  0.447   16700   -3954   14305      2.71  0.904   2845   -5.78  CR   
180  252.49   50600  0.698  318.5  287.64  220.00  0.465   16700   -3589   14262      2.74  0.897   2848   -5.61  CR   
200  248.53   46563  0.653  316.0  296.84  220.00  0.483   16700   -3190   14217      2.75  0.890   2844   -5.43  CR   
220  244.56   42791  0.610  313.5  306.44  220.00  0.503   16700   -2740   14146      2.73  0.883   2824   -5.22  CR   
240  240.60   39271  0.569  311.0  316.44  220.00  0.524   16700   -2217   13945      2.69  0.875   2766   -4.95  CR   
250  238.62   37601  0.549  309.7  321.61  220.00  0.534   16700   -1920   13712      2.65  0.871   2706   -4.77  CR   


Low mass CRUISE
===============

 FL    T       p      rho     a      TAS     CAS     M     mass   Thrust    Drag     Fuel    ESF    ROCD   gamma Conf  Lim
[-]   [K]     [Pa]  [kg/m3] [m/s]   [kt]    [kt]    [-]    [kg]     [N]     [N]     [kgm]    [-]   [fpm]   [deg]  [-]     
  0  288.15  101325  1.225  340.3  150.00  150.00  0.227   11520    7698    7698      6.88  0.000      0    0.00  CR   
  5  287.16   99508  1.207  339.7  151.09  150.00  0.229   11520    7704    7704      6.80  0.000      0    0.00  CR   
 10  286.17   97717  1.190  339.1  152.18  150.00  0.231   11520    7709    7709      6.73  0.000      0    0.00  CR   
 15  285.18   95952  1.172  338.5  153.29  150.00  0.233   11520    7715    7715      6.66  0.000      0    0.00  CR   
 20  284.19   94213  1.155  337.9  154.41  150.00  0.235   11520    7721    7721      6.59  0.000      0    0.00  CR   
 30  282.21   90812  1.121  336.8  187.97  180.00  0.287   11520    9550    9550      7.72  0.000      0    0.00  CR   
 40  280.23   87511  1.088  335.6  190.73  180.00  0.292   11520    9565    9565      7.63  0.000      0    0.00  CR   
 60  276.26   81200  1.024  333.2  250.67  230.00  0.387   11520   14516   14516     11.07  0.000      0    0.00  CR   
 80  272.30   75262  0.963  330.8  258.13  230.00  0.401   11520   14516   14516     10.98  0.000      0    0.00  CR   
100  268.34   69682  0.905  328.4  243.03  210.00  0.381   11520   12357   12357      9.19  0.000      0    0.00  CR   
120  264.38   64441  0.849  326.0  250.50  210.00  0.395   11520   12359   12359      9.11  0.000      0    0.00  CR   
140  260.41   59524  0.796  323.5  258.28  210.00  0.411   11520   12344   12344      9.06  0.000      0    0.00  CR   
160  256.45   54915  0.746  321.0  266.40  210.00  0.427   11520   12313   12313      9.03  0.000      0    0.00  CR   
180  252.49   50600  0.698  318.5  274.87  210.00  0.444   11520   12267   12267      9.01  0.000      0    0.00  CR   
200  248.53   46563  0.653  316.0  276.44  204.48  0.450   11520   11709   11709      8.55  0.000      0    0.00  CR   
220  244.56   42791  0.610  313.5  274.23  196.21  0.450   11520   10942   10942      7.90  0.000      0    0.00  CR   
240  240.60   39271  0.569  311.0  272.00  188.13  0.450   11520   10242   10242      7.31  0.000      0    0.00  CR   
250  238.62   37601  0.549  309.7  270.88  184.16  0.450   11520    9917    9917      7.04  0.000      0    0.00  CR   


Medium mass CRUISE
==================

 FL    T       p      rho     a      TAS     CAS     M     mass   Thrust    Drag     Fuel    ESF    ROCD   gamma Conf  Lim
[-]   [K]     [Pa]  [kg/m3] [m/s]   [kt]    [kt]    [-]    [kg]     [N]     [N]     [kgm]    [-]   [fpm]   [deg]  [-]     
  0  288.15  101325  1.225  340.3  150.00  150.00  0.227   14570    9126    9126      7.26  0.000      0    0.00  CR   
  5  287.16   99508  1.207  339.7  151.09  150.00  0.229   14570    9133    9133      7.19  0.000      0    0.00  CR   
 10  286.17   97717  1.190  339.1  152.18  150.00  0.231   14570    9139    9139      7.12  0.000      0    0.00  CR   
 15  285.18   95952  1.172  338.5  153.29  150.00  0.233   14570    9145    9145      7.05  0.000      0    0.00  CR   
 20  284.19   94213  1.155  337.9  154.41  150.00  0.235   14570    9151    9151      6.99  0.000      0    0.00  CR   
 30  282.21   90812  1.121  336.8  187.97  180.00  0.287   14570   10520   10520      8.04  0.000      0    0.00  CR   
 40  280.23   87511  1.088  335.6  190.73  180.00  0.292   14570   10531   10531      7.95  0.000      0    0.00  CR   
 60  276.26   81200  1.024  333.2  250.67  230.00  0.387   14570   15024   15024     11.28  0.000      0    0.00  CR   
 80  272.30   75262  0.963  330.8  258.13  230.00  0.401   14570   15017   15017     11.21  0.000      0    0.00  CR   
100  268.34   69682  0.905  328.4  243.03  210.00  0.381   14570   12975   12975      9.44  0.000      0    0.00  CR   
120  264.38   64441  0.849  326.0  250.50  210.00  0.395   14570   12966   12966      9.38  0.000      0    0.00  CR   
140  260.41   59524  0.796  323.5  258.28  210.00  0.411   14570   12944   12944      9.34  0.000      0    0.00  CR   
160  256.45   54915  0.746  321.0  266.40  210.00  0.427   14570   12912   12912      9.34  0.000      0    0.00  CR   
180  252.49   50600  0.698  318.5  274.87  210.00  0.444   14570   12872   12872      9.36  0.000      0    0.00  CR   T
200  248.53   46563  0.653  316.0  276.44  204.48  0.450   14570   12351   12351      8.94  0.000      0    0.00  CR   T
220  244.56   42791  0.610  313.5  274.23  196.21  0.450   14570   11641   11641      8.33  0.000      0    0.00  CR   T
240  240.60   39271  0.569  311.0  272.00  188.13  0.450   14570   11003   11003      7.80  0.000      0    0.00  CR   T
250  238.62   37601  0.549  309.7  270.88  184.16  0.450   14570   10712   10712      7.55  0.000      0    0.00  CR   T


High mass CRUISE
================

 FL    T       p      rho     a      TAS     CAS     M     mass   Thrust    Drag     Fuel    ESF    ROCD   gamma Conf  Lim
[-]   [K]     [Pa]  [kg/m3] [m/s]   [kt]    [kt]    [-]    [kg]     [N]     [N]     [kgm]    [-]   [fpm]   [deg]  [-]     
  0  288.15  101325  1.225  340.3  150.00  150.00  0.227   16700   10322   10322      7.59  0.000      0    0.00  CR   
  5  287.16   99508  1.207  339.7  151.09  150.00  0.229   16700   10329   10329      7.52  0.000      0    0.00  CR   
 10  286.17   97717  1.190  339.1  152.18  150.00  0.231   16700   10336   10336      7.46  0.000      0    0.00  CR   
 15  285.18   95952  1.172  338.5  153.29  150.00  0.233   16700   10342   10342      7.39  0.000      0    0.00  CR   
 20  284.19   94213  1.155  337.9  154.41  150.00  0.235   16700   10349   10349      7.33  0.000      0    0.00  CR   
 30  282.21   90812  1.121  336.8  187.97  180.00  0.287   16700   11332   11332      8.32  0.000      0    0.00  CR   
 40  280.23   87511  1.088  335.6  190.73  180.00  0.292   16700   11339   11339      8.22  0.000      0    0.00  CR   
 60  276.26   81200  1.024  333.2  250.67  230.00  0.387   16700   15450   15450     11.47  0.000      0    0.00  CR   
 80  272.30   75262  0.963  330.8  258.13  230.00  0.401   16700   15436   15436     11.40  0.000      0    0.00  CR   
100  268.34   69682  0.905  328.4  243.03  210.00  0.381   16700   13493   13493      9.66  0.000      0    0.00  CR   
120  264.38   64441  0.849  326.0  250.50  210.00  0.395   16700   13474   13474      9.61  0.000      0    0.00  CR   
140  260.41   59524  0.796  323.5  258.28  210.00  0.411   16700   13446   13446      9.59  0.000      0    0.00  CR   
160  256.45   54915  0.746  321.0  266.40  210.00  0.427   16700   13413   13413      9.61  0.000      0    0.00  CR   
180  252.49   50600  0.698  318.5  274.87  210.00  0.444   16700   13378   13378      9.67  0.000      0    0.00  CR   T
200  248.53   46563  0.653  316.0  276.44  204.48  0.450   16700   12889   12889      9.29  0.000      0    0.00  CR   T
220  244.56   42791  0.610  313.5  274.23  196.21  0.450   16700   12226   12226      8.73  0.000      0    0.00  CR   T
240  240.60   39271  0.569  311.0  272.00  188.13  0.450   16700   11641   11641      8.25  0.000      0    0.00  CR   T
250  238.62   37601  0.549  309.7  270.88  184.16  0.450   16700   11378   11378      8.04  0.000      0    0.00  CR   T
