BADA PERFORMANCE FILE RESULTS
=============================
=============================

Low mass CLIMB
==============

 FL    T       p      rho     a      TAS     CAS     M     mass   Thrust    Drag     Fuel    ESF    ROCD   gamma Conf  Lim
[-]   [K]     [Pa]  [kg/m3] [m/s]   [kt]    [kt]    [-]    [kg]     [N]     [N]     [kgm]    [-]   [fpm]   [deg]  [-]     
  0  308.15  101325  1.145  351.9  115.07  111.27  0.168   11520   28780    7628     12.23  0.984   2008   10.62  TO   
  5  307.16   99508  1.129  351.3  126.33  121.27  0.185   11520   26984    6985     12.16  0.981   2077   10.00  IC   
 10  306.17   97717  1.112  350.8  132.52  126.27  0.194   11520   26001    7029     12.05  0.979   2062    9.46  IC   
 15  305.18   95952  1.095  350.2  169.14  160.00  0.248   11520   21874    8212     11.95  0.966   1870    6.71  IC   
 20  304.19   94213  1.079  349.6  170.39  160.00  0.251   11520   21605    8218     11.82  0.966   1845    6.57  CR   
 30  302.21   90812  1.047  348.5  172.94  160.00  0.255   11520   21064    8230     11.57  0.965   1792    6.29  CR   
 40  300.23   87511  1.015  347.4  175.54  160.00  0.260   11520   20520    8242     11.31  0.963   1737    6.01  CR   
 60  296.26   81200  0.955  345.1  180.91  160.00  0.270   11520   19424    8265     10.80  0.961   1621    5.44  CR   
 80  292.30   75262  0.897  342.7  186.52  160.00  0.280   11520   18327    8286     10.29  0.958   1498    4.88  CR   
100  288.34   69682  0.842  340.4  192.38  160.00  0.291   11520   17240    8304      9.79  0.955   1369    4.33  CR   
120  284.38   64441  0.789  338.1  198.50  160.00  0.302   11520   16171    8320      9.31  0.951   1236    3.79  CR   
140  280.41   59524  0.739  335.7  204.91  160.00  0.314   11520   15127    8331      8.84  0.948   1099    3.27  CR   
160  276.45   54915  0.692  333.3  211.61  160.00  0.327   11520   14116    8337      8.39  0.944    960    2.77  CR   
180  272.49   50600  0.647  330.9  218.62  160.00  0.340   11520   13144    8337      7.97  0.940    820    2.29  CR   
200  268.53   46563  0.604  328.5  225.96  160.00  0.354   11520   12217    8330      7.57  0.935    681    1.84  CR   
220  264.56   42791  0.563  326.1  233.65  160.00  0.369   11520   11339    8316      7.20  0.930    544    1.43  CR   
240  260.60   39271  0.525  323.6  241.72  160.00  0.384   11520   10514    8296      6.85  0.925    410    1.04  CR   
250  258.62   37601  0.506  322.4  245.89  160.00  0.392   11520   10123    8284      6.68  0.922    345    0.86  CR   


Medium mass CLIMB
=================

 FL    T       p      rho     a      TAS     CAS     M     mass   Thrust    Drag     Fuel    ESF    ROCD   gamma Conf  Lim
[-]   [K]     [Pa]  [kg/m3] [m/s]   [kt]    [kt]    [-]    [kg]     [N]     [N]     [kgm]    [-]   [fpm]   [deg]  [-]     
  0  308.15  101325  1.145  351.9  126.83  122.64  0.185   14570   27113    9632     12.29  0.981   1441    6.89  TO   
  5  307.16   99508  1.129  351.3  138.18  132.64  0.202   14570   25499    8940     12.19  0.977   1482    6.50  IC   
 10  306.17   97717  1.112  350.8  144.45  137.64  0.212   14570   24598    8950     12.07  0.975   1460    6.13  IC   
 15  305.18   95952  1.095  350.2  169.14  160.00  0.248   14570   21874    9467     11.95  0.966   1343    4.81  IC   
 20  304.19   94213  1.079  349.6  170.39  160.00  0.251   14570   21605    9473     11.82  0.966   1322    4.70  CR   
 30  302.21   90812  1.047  348.5  172.94  160.00  0.255   14570   21064    9484     11.57  0.965   1278    4.48  CR   
 40  300.23   87511  1.015  347.4  175.54  160.00  0.260   14570   20520    9494     11.31  0.963   1233    4.26  CR   
 60  296.26   81200  0.955  345.1  180.91  160.00  0.270   14570   19424    9512     10.80  0.961   1138    3.82  CR   
 80  292.30   75262  0.897  342.7  186.52  160.00  0.280   14570   18327    9525     10.29  0.958   1038    3.38  CR   
100  288.34   69682  0.842  340.4  192.38  160.00  0.291   14570   17240    9533      9.79  0.955    934    2.95  CR   
120  284.38   64441  0.789  338.1  198.50  160.00  0.302   14570   16171    9534      9.31  0.951    826    2.53  CR   
140  280.41   59524  0.739  335.7  204.91  160.00  0.314   14570   15127    9527      8.84  0.948    716    2.13  CR   
160  276.45   54915  0.692  333.3  211.61  160.00  0.327   14570   14116    9512      8.39  0.944    604    1.74  CR   
180  272.49   50600  0.647  330.9  218.62  160.00  0.340   14570   13144    9487      7.97  0.940    493    1.38  CR   
200  268.53   46563  0.604  328.5  225.96  160.00  0.354   14570   12217    9454      7.57  0.935    383    1.04  CR   
220  264.56   42791  0.563  326.1  233.65  160.00  0.369   14570   11339    9413      7.20  0.930    274    0.72  CR   
240  260.60   39271  0.525  323.6  241.72  160.00  0.384   14570   10514    9367      6.85  0.925    168    0.43  CR   
250  258.62   37601  0.506  322.4  245.89  160.00  0.392   14570   10123    9345      6.68  0.922    115    0.29  CR   


High mass CLIMB
===============

 FL    T       p      rho     a      TAS     CAS     M     mass   Thrust    Drag     Fuel    ESF    ROCD   gamma Conf  Lim
[-]   [K]     [Pa]  [kg/m3] [m/s]   [kt]    [kt]    [-]    [kg]     [N]     [N]     [kgm]    [-]   [fpm]   [deg]  [-]     
  0  308.15  101325  1.145  351.9  134.32  129.89  0.196   16700   26148   11041     12.31  0.979   1148    5.18  TO   
  5  307.16   99508  1.129  351.3  145.73  139.89  0.213   16700   24624   10328     12.20  0.975   1174    4.88  IC   
 10  306.17   97717  1.112  350.8  152.05  144.89  0.223   16700   23764   10312     12.08  0.973   1150    4.58  IC   
 15  305.18   95952  1.095  350.2  169.14  160.00  0.248   16700   21874   10518     11.95  0.966   1072    3.84  IC   
 20  304.19   94213  1.079  349.6  170.39  160.00  0.251   16700   21605   10523     11.82  0.966   1053    3.75  CR   
 30  302.21   90812  1.047  348.5  172.94  160.00  0.255   16700   21064   10533     11.57  0.965   1014    3.56  CR   
 40  300.23   87511  1.015  347.4  175.54  160.00  0.260   16700   20520   10542     11.31  0.963    974    3.36  CR   
 60  296.26   81200  0.955  345.1  180.91  160.00  0.270   16700   19424   10555     10.80  0.961    889    2.98  CR   
 80  292.30   75262  0.897  342.7  186.52  160.00  0.280   16700   18327   10562     10.29  0.958    799    2.60  CR   
100  288.34   69682  0.842  340.4  192.38  160.00  0.291   16700   17240   10561      9.79  0.955    706    2.23  CR   
120  284.38   64441  0.789  338.1  198.50  160.00  0.302   16700   16171   10550      9.31  0.951    610    1.87  CR   
140  280.41   59524  0.739  335.7  204.91  160.00  0.314   16700   15127   10529      8.84  0.948    513    1.52  CR   
160  276.45   54915  0.692  333.3  211.61  160.00  0.327   16700   14116   10496      8.39  0.944    415    1.20  CR   
180  272.49   50600  0.647  330.9  218.62  160.00  0.340   16700   13144   10451      7.97  0.940    317    0.89  CR   
200  268.53   46563  0.604  328.5  225.96  160.00  0.354   16700   12217   10395      7.57  0.935    220    0.60  CR   
220  264.56   42791  0.563  326.1  233.65  160.00  0.369   16700   11339   10331      7.20  0.930    125    0.33  CR   
240  260.60   39271  0.525  323.6  241.72  160.00  0.384   16700   10514   10264      6.85  0.925     32    0.08  CR   
250  258.62   37601  0.506  322.4  245.89  160.00  0.392   16700   10123   10232      6.68  0.922    -14   -0.04  CR   


Low mass DESCENT
================

 FL    T       p      rho     a      TAS     CAS     M     mass   Thrust    Drag     Fuel    ESF    ROCD   gamma Conf  Lim
[-]   [K]     [Pa]  [kg/m3] [m/s]   [kt]    [kt]    [-]    [kg]     [N]     [N]     [kgm]    [-]   [fpm]   [deg]  [-]     
  0  308.15  101325  1.145  351.9   84.09   81.32  0.123   11520    8073   14037      6.80  0.991    417   -3.00  LD   
  5  307.16   99508  1.129  351.3   84.72   81.32  0.124   11520    8072   14037      6.68  0.991    420   -3.00  LD   
 10  306.17   97717  1.112  350.8   90.60   86.32  0.133   11520    8082   14054      6.54  0.990    449   -3.00  LD   
 15  305.18   95952  1.095  350.2  101.84   96.32  0.150   11520    2921    8910      5.70  0.987    504   -3.00  AP   
 20  304.19   94213  1.079  349.6  134.55  126.32  0.198   11520   -7929    7041      2.76  0.978   1650   -7.45  CR   
 30  302.21   90812  1.047  348.5  237.62  220.00  0.351   11520   -5479   13333      2.15  0.936   3503   -8.97  CR   
 40  300.23   87511  1.015  347.4  241.13  220.00  0.357   11520   -5427   13352      2.10  0.934   3538   -8.93  CR   
 60  296.26   81200  0.955  345.1  248.37  220.00  0.370   11520   -5268   13383      2.07  0.930   3599   -8.83  CR   
 80  292.30   75262  0.897  342.7  255.92  220.00  0.384   11520   -5064   13401      2.07  0.925   3649   -8.69  CR   
100  288.34   69682  0.842  340.4  263.79  220.00  0.399   11520   -4840   13402      2.11  0.920   3692   -8.54  CR   
120  284.38   64441  0.789  338.1  272.00  220.00  0.414   11520   -4612   13385      2.16  0.914   3729   -8.37  CR   
140  280.41   59524  0.739  335.7  280.56  220.00  0.430   11520   -4387   13347      2.22  0.908   3762   -8.20  CR   
160  276.45   54915  0.692  333.3  289.49  220.00  0.447   11520   -4167   13293      2.27  0.902   3792   -8.01  CR   
180  272.49   50600  0.647  330.9  298.82  220.00  0.465   11520   -3946   13232      2.31  0.895   3818   -7.83  CR   
200  268.53   46563  0.604  328.5  308.55  220.00  0.483   11520   -3714   13186      2.33  0.888   3843   -7.64  CR   
220  264.56   42791  0.563  326.1  318.72  220.00  0.503   11520   -3458   13196      2.32  0.881   3874   -7.46  CR   
240  260.60   39271  0.525  323.6  329.33  220.00  0.524   11520   -3159   13319      2.28  0.873   3919   -7.31  CR   
250  258.62   37601  0.506  322.4  334.82  220.00  0.534   11520   -2986   13447      2.25  0.868   3951   -7.26  CR   


Medium mass DESCENT
===================

 FL    T       p      rho     a      TAS     CAS     M     mass   Thrust    Drag     Fuel    ESF    ROCD   gamma Conf  Lim
[-]   [K]     [Pa]  [kg/m3] [m/s]   [kt]    [kt]    [-]    [kg]     [N]     [N]     [kgm]    [-]   [fpm]   [deg]  [-]     
  0  308.15  101325  1.145  351.9   93.93   90.83  0.137   14570   10215   17774      7.06  0.989    465   -3.00  LD   
  5  307.16   99508  1.129  351.3   94.62   90.83  0.139   14570   10214   17774      6.95  0.989    469   -3.00  LD   
 10  306.17   97717  1.112  350.8  100.58   95.83  0.148   14570   10169   17740      6.87  0.988    498   -3.00  LD   
 15  305.18   95952  1.095  350.2  111.90  105.83  0.164   14570    3756   11349      5.73  0.985    554   -3.00  AP   
 20  304.19   94213  1.079  349.6  144.67  135.83  0.213   14570   -7525    8959      2.77  0.975   1539   -6.46  CR   
 30  302.21   90812  1.047  348.5  237.62  220.00  0.351   14570   -5479   13922      2.15  0.936   2856   -7.30  CR   
 40  300.23   87511  1.015  347.4  241.13  220.00  0.357   14570   -5427   13936      2.10  0.934   2885   -7.27  CR   
 60  296.26   81200  0.955  345.1  248.37  220.00  0.370   14570   -5268   13954      2.07  0.930   2933   -7.18  CR   
 80  292.30   75262  0.897  342.7  255.92  220.00  0.384   14570   -5064   13960      2.07  0.925   2973   -7.07  CR   
100  288.34   69682  0.842  340.4  263.79  220.00  0.399   14570   -4840   13952      2.11  0.920   3007   -6.95  CR   
120  284.38   64441  0.789  338.1  272.00  220.00  0.414   14570   -4612   13929      2.16  0.914   3038   -6.81  CR   
140  280.41   59524  0.739  335.7  280.56  220.00  0.430   14570   -4387   13892      2.22  0.908   3066   -6.67  CR   
160  276.45   54915  0.692  333.3  289.49  220.00  0.447   14570   -4167   13844      2.27  0.902   3093   -6.53  CR   
180  272.49   50600  0.647  330.9  298.82  220.00  0.465   14570   -3946   13793      2.31  0.895   3117   -6.38  CR   
200  268.53   46563  0.604  328.5  308.55  220.00  0.483   14570   -3714   13748      2.33  0.888   3140   -6.23  CR   
220  264.56   42791  0.563  326.1  318.72  220.00  0.503   14570   -3458   13713      2.32  0.881   3158   -6.08  CR   
240  260.60   39271  0.525  323.6  329.33  220.00  0.524   14570   -3159   13660      2.28  0.873   3163   -5.90  CR   
250  258.62   37601  0.506  322.4  334.82  220.00  0.534   14570   -2986   13591      2.25  0.868   3152   -5.78  CR   


High mass DESCENT
=================

 FL    T       p      rho     a      TAS     CAS     M     mass   Thrust    Drag     Fuel    ESF    ROCD   gamma Conf  Lim
[-]   [K]     [Pa]  [kg/m3] [m/s]   [kt]    [kt]    [-]    [kg]     [N]     [N]     [kgm]    [-]   [fpm]   [deg]  [-]     
  0  308.15  101325  1.145  351.9  100.19   96.89  0.146   16700   11710   20386      7.34  0.988    497   -3.00  LD   
  5  307.16   99508  1.129  351.3  100.94   96.89  0.148   16700   11709   20387      7.25  0.988    500   -3.00  LD   
 10  306.17   97717  1.112  350.8  106.93  101.89  0.157   16700   11629   20320      7.19  0.986    530   -3.00  LD   
 15  305.18   95952  1.095  350.2  118.30  111.89  0.174   16700    4358   13077      5.80  0.983    586   -3.00  AP   
 20  304.19   94213  1.079  349.6  151.12  141.89  0.222   16700   -7286   10336      2.76  0.973   1496   -6.01  CR   
 30  302.21   90812  1.047  348.5  237.62  220.00  0.351   16700   -5479   14416      2.15  0.936   2555   -6.53  CR   
 40  300.23   87511  1.015  347.4  241.13  220.00  0.357   16700   -5427   14424      2.10  0.934   2580   -6.50  CR   
 60  296.26   81200  0.955  345.1  248.37  220.00  0.370   16700   -5268   14432      2.07  0.930   2622   -6.42  CR   
 80  292.30   75262  0.897  342.7  255.92  220.00  0.384   16700   -5064   14428      2.07  0.925   2657   -6.32  CR   
100  288.34   69682  0.842  340.4  263.79  220.00  0.399   16700   -4840   14412      2.11  0.920   2688   -6.21  CR   
120  284.38   64441  0.789  338.1  272.00  220.00  0.414   16700   -4612   14385      2.16  0.914   2716   -6.09  CR   
140  280.41   59524  0.739  335.7  280.56  220.00  0.430   16700   -4387   14348      2.22  0.908   2742   -5.96  CR   
160  276.45   54915  0.692  333.3  289.49  220.00  0.447   16700   -4167   14305      2.27  0.902   2767   -5.84  CR   
180  272.49   50600  0.647  330.9  298.82  220.00  0.465   16700   -3946   14262      2.31  0.895   2791   -5.71  CR   
200  268.53   46563  0.604  328.5  308.55  220.00  0.483   16700   -3714   14217      2.33  0.888   2813   -5.58  CR   
220  264.56   42791  0.563  326.1  318.72  220.00  0.503   16700   -3458   14146      2.32  0.881   2825   -5.43  CR   
240  260.60   39271  0.525  323.6  329.33  220.00  0.524   16700   -3159   13945      2.28  0.873   2806   -5.23  CR   
250  258.62   37601  0.506  322.4  334.82  220.00  0.534   16700   -2986   13712      2.25  0.868   2770   -5.08  CR   


Low mass CRUISE
===============

 FL    T       p      rho     a      TAS     CAS     M     mass   Thrust    Drag     Fuel    ESF    ROCD   gamma Conf  Lim
[-]   [K]     [Pa]  [kg/m3] [m/s]   [kt]    [kt]    [-]    [kg]     [N]     [N]     [kgm]    [-]   [fpm]   [deg]  [-]     
  0  308.15  101325  1.145  351.9  155.12  150.00  0.227   11520    7698    7698      7.11  0.000      0    0.00  CR   
  5  307.16   99508  1.129  351.3  156.26  150.00  0.229   11520    7704    7704      7.03  0.000      0    0.00  CR   
 10  306.17   97717  1.112  350.8  157.41  150.00  0.231   11520    7709    7709      6.96  0.000      0    0.00  CR   
 15  305.18   95952  1.095  350.2  158.58  150.00  0.233   11520    7715    7715      6.89  0.000      0    0.00  CR   
 20  304.19   94213  1.079  349.6  159.75  150.00  0.235   11520    7721    7721      6.82  0.000      0    0.00  CR   
 30  302.21   90812  1.047  348.5  194.51  180.00  0.287   11520    9550    9550      7.99  0.000      0    0.00  CR   
 40  300.23   87511  1.015  347.4  197.42  180.00  0.292   11520    9565    9565      7.89  0.000      0    0.00  CR   
 60  296.26   81200  0.955  345.1  259.59  230.00  0.387   11520   14516   14516     11.47  0.000      0    0.00  CR   T
 80  292.30   75262  0.897  342.7  267.44  230.00  0.401   11520   14516   14516     11.38  0.000      0    0.00  CR   T
100  288.34   69682  0.842  340.4  251.93  210.00  0.381   11520   12357   12357      9.53  0.000      0    0.00  CR   T
120  284.38   64441  0.789  338.1  259.80  210.00  0.395   11520   12359   12359      9.45  0.000      0    0.00  CR   T
140  280.41   59524  0.739  335.7  268.02  210.00  0.411   11520   12344   12344      9.40  0.000      0    0.00  CR   T
160  276.45   54915  0.692  333.3  276.59  210.00  0.427   11520   12313   12313      9.37  0.000      0    0.00  CR   T
180  272.49   50600  0.647  330.9  285.55  210.00  0.444   11520   12267   12267      9.36  0.000      0    0.00  CR   T
200  268.53   46563  0.604  328.5  287.35  204.48  0.450   11520   11709   11709      8.89  0.000      0    0.00  CR   T
220  264.56   42791  0.563  326.1  285.22  196.21  0.450   11520   10942   10942      8.22  0.000      0    0.00  CR   T
240  260.60   39271  0.525  323.6  283.08  188.13  0.450   11520   10242   10242      7.61  0.000      0    0.00  CR   T
250  258.62   37601  0.506  322.4  282.00  184.16  0.450   11520    9917    9917      7.33  0.000      0    0.00  CR   T


Medium mass CRUISE
==================

 FL    T       p      rho     a      TAS     CAS     M     mass   Thrust    Drag     Fuel    ESF    ROCD   gamma Conf  Lim
[-]   [K]     [Pa]  [kg/m3] [m/s]   [kt]    [kt]    [-]    [kg]     [N]     [N]     [kgm]    [-]   [fpm]   [deg]  [-]     
  0  308.15  101325  1.145  351.9  155.12  150.00  0.227   14570    9126    9126      7.51  0.000      0    0.00  CR   
  5  307.16   99508  1.129  351.3  156.26  150.00  0.229   14570    9133    9133      7.43  0.000      0    0.00  CR   
 10  306.17   97717  1.112  350.8  157.41  150.00  0.231   14570    9139    9139      7.36  0.000      0    0.00  CR   
 15  305.18   95952  1.095  350.2  158.58  150.00  0.233   14570    9145    9145      7.29  0.000      0    0.00  CR   
 20  304.19   94213  1.079  349.6  159.75  150.00  0.235   14570    9151    9151      7.23  0.000      0    0.00  CR   
 30  302.21   90812  1.047  348.5  194.51  180.00  0.287   14570   10520   10520      8.32  0.000      0    0.00  CR   
 40  300.23   87511  1.015  347.4  197.42  180.00  0.292   14570   10531   10531      8.23  0.000      0    0.00  CR   
 60  296.26   81200  0.955  345.1  259.59  230.00  0.387   14570   15024   15024     11.69  0.000      0    0.00  CR   T
 80  292.30   75262  0.897  342.7  267.44  230.00  0.401   14570   15017   15017     11.61  0.000      0    0.00  CR   T
100  288.34   69682  0.842  340.4  251.93  210.00  0.381   14570   12975   12975      9.79  0.000      0    0.00  CR   T
120  284.38   64441  0.789  338.1  259.80  210.00  0.395   14570   12966   12966      9.73  0.000      0    0.00  CR   T
140  280.41   59524  0.739  335.7  268.02  210.00  0.411   14570   12944   12944      9.69  0.000      0    0.00  CR   T
160  276.45   54915  0.692  333.3  276.59  210.00  0.427   14570   12912   12912      9.69  0.000      0    0.00  CR   T
180  272.49   50600  0.647  330.9  285.55  210.00  0.444   14570   12872   12872      9.72  0.000      0    0.00  CR   T
200  268.53   46563  0.604  328.5  287.35  204.48  0.450   14570   12351   12351      9.29  0.000      0    0.00  CR   T
220  264.56   42791  0.563  326.1  285.22  196.21  0.450   14570   11641   11641      8.67  0.000      0    0.00  CR   T
240  260.60   39271  0.525  323.6  283.08  188.13  0.450   14570   11003   11003      8.11  0.000      0    0.00  CR   T
250  258.62   37601  0.506  322.4  282.00  184.16  0.450   14570   10712   10712      7.86  0.000      0    0.00  CR   T


High mass CRUISE
================

 FL    T       p      rho     a      TAS     CAS     M     mass   Thrust    Drag     Fuel    ESF    ROCD   gamma Conf  Lim
[-]   [K]     [Pa]  [kg/m3] [m/s]   [kt]    [kt]    [-]    [kg]     [N]     [N]     [kgm]    [-]   [fpm]   [deg]  [-]     
  0  308.15  101325  1.145  351.9  155.12  150.00  0.227   16700   10322   10322      7.85  0.000      0    0.00  CR   
  5  307.16   99508  1.129  351.3  156.26  150.00  0.229   16700   10329   10329      7.78  0.000      0    0.00  CR   
 10  306.17   97717  1.112  350.8  157.41  150.00  0.231   16700   10336   10336      7.71  0.000      0    0.00  CR   
 15  305.18   95952  1.095  350.2  158.58  150.00  0.233   16700   10342   10342      7.65  0.000      0    0.00  CR   
 20  304.19   94213  1.079  349.6  159.75  150.00  0.235   16700   10349   10349      7.59  0.000      0    0.00  CR   
 30  302.21   90812  1.047  348.5  194.51  180.00  0.287   16700   11332   11332      8.61  0.000      0    0.00  CR   
 40  300.23   87511  1.015  347.4  197.42  180.00  0.292   16700   11339   11339      8.51  0.000      0    0.00  CR   
 60  296.26   81200  0.955  345.1  259.59  230.00  0.387   16700   15450   15450     11.87  0.000      0    0.00  CR   T
 80  292.30   75262  0.897  342.7  267.44  230.00  0.401   16700   15436   15436     11.81  0.000      0    0.00  CR   T
100  288.34   69682  0.842  340.4  251.93  210.00  0.381   16700   13493   13493     10.02  0.000      0    0.00  CR   T
120  284.38   64441  0.789  338.1  259.80  210.00  0.395   16700   13474   13474      9.96  0.000      0    0.00  CR   T
140  280.41   59524  0.739  335.7  268.02  210.00  0.411   16700   13446   13446      9.95  0.000      0    0.00  CR   T
160  276.45   54915  0.692  333.3  276.59  210.00  0.427   16700   13413   13413      9.98  0.000      0    0.00  CR   T
180  272.49   50600  0.647  330.9  285.55  210.00  0.444   16700   13378   13378     10.04  0.000      0    0.00  CR   T
200  268.53   46563  0.604  328.5  287.35  204.48  0.450   16700   12889   12889      9.65  0.000      0    0.00  CR   T
220  264.56   42791  0.563  326.1  285.22  196.21  0.450   16700   12226   12226      9.08  0.000      0    0.00  CR   T
240  260.60   39271  0.525  323.6  283.08  188.13  0.450   16700   11641   11641      8.58  0.000      0    0.00  CR   T
250  258.62   37601  0.506  322.4  282.00  184.16  0.450   16700   11378   11378      8.37  0.000      0    0.00  CR   T
