BADA PERFORMANCE FILE RESULTS
=============================
=============================

Low mass CLIMB
==============

 FL    T       p      rho     a      TAS     CAS     M     mass   Thrust    Drag     Fuel    ESF    ROCD   gamma Conf  Lim
[-]   [K]     [Pa]  [kg/m3] [m/s]   [kt]    [kt]    [-]    [kg]     [N]     [N]     [kgm]    [-]   [fpm]   [deg]  [-]     
  0  308.15  101325  1.145  351.9  115.07  111.27  0.168   11520   29665    7628     12.57  0.984   2092   11.07  TO   
  5  307.16   99508  1.129  351.3  126.33  121.27  0.185   11520   27927    6983     12.52  0.981   2175   10.48  IC   
 10  306.17   97717  1.112  350.8  132.52  126.27  0.194   11520   26915    7027     12.41  0.979   2162    9.92  IC   
 15  305.18   95952  1.095  350.2  169.14  160.00  0.248   11520   22660    8214     12.28  0.966   1978    7.10  IC   
 20  304.19   94213  1.079  349.6  170.39  160.00  0.251   11520   22351    8220     12.13  0.966   1947    6.94  CR   
 30  302.21   90812  1.047  348.5  172.94  160.00  0.255   11520   21739    8232     11.85  0.965   1886    6.62  CR   
 40  300.23   87511  1.015  347.4  175.54  160.00  0.260   11520   21133    8243     11.57  0.963   1824    6.31  CR   
 60  296.26   81200  0.955  345.1  180.91  160.00  0.270   11520   19942    8266     11.02  0.961   1696    5.70  CR   
 80  292.30   75262  0.897  342.7  186.52  160.00  0.280   11520   18783    8287     10.49  0.958   1566    5.11  CR   
100  288.34   69682  0.842  340.4  192.38  160.00  0.291   11520   17656    8305      9.98  0.955   1433    4.53  CR   
120  284.38   64441  0.789  338.1  198.50  160.00  0.302   11520   16563    8321      9.49  0.951   1297    3.98  CR   
140  280.41   59524  0.739  335.7  204.91  160.00  0.314   11520   15507    8332      9.02  0.948   1160    3.45  CR   
160  276.45   54915  0.692  333.3  211.61  160.00  0.327   11520   14488    8338      8.57  0.944   1021    2.94  CR   
180  272.49   50600  0.647  330.9  218.62  160.00  0.340   11520   13508    8338      8.15  0.940    882    2.46  CR   
200  268.53   46563  0.604  328.5  225.96  160.00  0.354   11520   12566    8332      7.74  0.935    742    2.01  CR   
220  264.56   42791  0.563  326.1  233.65  160.00  0.369   11520   11665    8318      7.35  0.930    603    1.58  CR   
240  260.60   39271  0.525  323.6  241.72  160.00  0.384   11520   10804    8298      6.98  0.925    463    1.17  CR   
250  258.62   37601  0.506  322.4  245.89  160.00  0.392   11520   10388    8286      6.80  0.922    394    0.98  CR   


Medium mass CLIMB
=================

 FL    T       p      rho     a      TAS     CAS     M     mass   Thrust    Drag     Fuel    ESF    ROCD   gamma Conf  Lim
[-]   [K]     [Pa]  [kg/m3] [m/s]   [kt]    [kt]    [-]    [kg]     [N]     [N]     [kgm]    [-]   [fpm]   [deg]  [-]     
  0  308.15  101325  1.145  351.9  126.83  122.64  0.185   14570   28106    9632     12.67  0.981   1523    7.29  TO   
  5  307.16   99508  1.129  351.3  138.18  132.64  0.202   14570   26460    8936     12.57  0.977   1568    6.88  IC   
 10  306.17   97717  1.112  350.8  144.45  137.64  0.212   14570   25501    8946     12.43  0.975   1545    6.49  IC   
 15  305.18   95952  1.095  350.2  169.14  160.00  0.248   14570   22660    9467     12.28  0.966   1428    5.12  IC   
 20  304.19   94213  1.079  349.6  170.39  160.00  0.251   14570   22351    9473     12.13  0.966   1403    4.99  CR   
 30  302.21   90812  1.047  348.5  172.94  160.00  0.255   14570   21739    9484     11.85  0.965   1353    4.75  CR   
 40  300.23   87511  1.015  347.4  175.54  160.00  0.260   14570   21133    9494     11.57  0.963   1302    4.50  CR   
 60  296.26   81200  0.955  345.1  180.91  160.00  0.270   14570   19942    9512     11.02  0.961   1198    4.02  CR   
 80  292.30   75262  0.897  342.7  186.52  160.00  0.280   14570   18783    9525     10.49  0.958   1092    3.56  CR   
100  288.34   69682  0.842  340.4  192.38  160.00  0.291   14570   17656    9533      9.98  0.955    984    3.11  CR   
120  284.38   64441  0.789  338.1  198.50  160.00  0.302   14570   16563    9535      9.49  0.951    875    2.68  CR   
140  280.41   59524  0.739  335.7  204.91  160.00  0.314   14570   15507    9529      9.02  0.948    764    2.27  CR   
160  276.45   54915  0.692  333.3  211.61  160.00  0.327   14570   14488    9515      8.57  0.944    653    1.88  CR   
180  272.49   50600  0.647  330.9  218.62  160.00  0.340   14570   13508    9491      8.15  0.940    542    1.51  CR   
200  268.53   46563  0.604  328.5  225.96  160.00  0.354   14570   12566    9458      7.74  0.935    431    1.17  CR   
220  264.56   42791  0.563  326.1  233.65  160.00  0.369   14570   11665    9417      7.35  0.930    320    0.84  CR   
240  260.60   39271  0.525  323.6  241.72  160.00  0.384   14570   10804    9371      6.98  0.925    209    0.53  CR   
250  258.62   37601  0.506  322.4  245.89  160.00  0.392   14570   10388    9348      6.80  0.922    154    0.38  CR   


High mass CLIMB
===============

 FL    T       p      rho     a      TAS     CAS     M     mass   Thrust    Drag     Fuel    ESF    ROCD   gamma Conf  Lim
[-]   [K]     [Pa]  [kg/m3] [m/s]   [kt]    [kt]    [-]    [kg]     [N]     [N]     [kgm]    [-]   [fpm]   [deg]  [-]     
  0  308.15  101325  1.145  351.9  134.32  129.89  0.196   16700   27159   11041     12.71  0.979   1225    5.53  TO   
  5  307.16   99508  1.129  351.3  145.73  139.89  0.213   16700   25571   10322     12.58  0.975   1252    5.21  IC   
 10  306.17   97717  1.112  350.8  152.05  144.89  0.223   16700   24646   10307     12.44  0.973   1226    4.88  IC   
 15  305.18   95952  1.095  350.2  169.14  160.00  0.248   16700   22660   10516     12.28  0.966   1147    4.11  IC   
 20  304.19   94213  1.079  349.6  170.39  160.00  0.251   16700   22351   10522     12.13  0.966   1125    4.00  CR   
 30  302.21   90812  1.047  348.5  172.94  160.00  0.255   16700   21739   10532     11.85  0.965   1079    3.78  CR   
 40  300.23   87511  1.015  347.4  175.54  160.00  0.260   16700   21133   10541     11.57  0.963   1034    3.57  CR   
 60  296.26   81200  0.955  345.1  180.91  160.00  0.270   16700   19942   10554     11.02  0.961    941    3.16  CR   
 80  292.30   75262  0.897  342.7  186.52  160.00  0.280   16700   18783   10562     10.49  0.958    846    2.76  CR   
100  288.34   69682  0.842  340.4  192.38  160.00  0.291   16700   17656   10561      9.98  0.955    750    2.37  CR   
120  284.38   64441  0.789  338.1  198.50  160.00  0.302   16700   16563   10551      9.49  0.951    653    2.00  CR   
140  280.41   59524  0.739  335.7  204.91  160.00  0.314   16700   15507   10531      9.02  0.948    555    1.65  CR   
160  276.45   54915  0.692  333.3  211.61  160.00  0.327   16700   14488   10499      8.57  0.944    457    1.32  CR   
180  272.49   50600  0.647  330.9  218.62  160.00  0.340   16700   13508   10455      8.15  0.940    359    1.00  CR   
200  268.53   46563  0.604  328.5  225.96  160.00  0.354   16700   12566   10400      7.74  0.935    262    0.71  CR   
220  264.56   42791  0.563  326.1  233.65  160.00  0.369   16700   11665   10337      7.35  0.930    165    0.43  CR   
240  260.60   39271  0.525  323.6  241.72  160.00  0.384   16700   10804   10269      6.98  0.925     68    0.17  CR   
250  258.62   37601  0.506  322.4  245.89  160.00  0.392   16700   10388   10236      6.80  0.922     20    0.05  CR   


Low mass DESCENT
================

 FL    T       p      rho     a      TAS     CAS     M     mass   Thrust    Drag     Fuel    ESF    ROCD   gamma Conf  Lim
[-]   [K]     [Pa]  [kg/m3] [m/s]   [kt]    [kt]    [-]    [kg]     [N]     [N]     [kgm]    [-]   [fpm]   [deg]  [-]     
  0  308.15  101325  1.145  351.9   84.09   81.32  0.123   11520    8073   14037      6.68  0.991    417   -3.00  LD   
  5  307.16   99508  1.129  351.3   84.72   81.32  0.124   11520    8072   14037      6.56  0.991    420   -3.00  LD   
 10  306.17   97717  1.112  350.8   90.60   86.32  0.133   11520    8082   14054      6.46  0.990    449   -3.00  LD   
 15  305.18   95952  1.095  350.2  101.84   96.32  0.150   11520    2921    8910      5.59  0.987    504   -3.00  AP   
 20  304.19   94213  1.079  349.6  134.55  126.32  0.198   11520   -7923    7040      2.76  0.978   1649   -7.44  CR   
 30  302.21   90812  1.047  348.5  237.62  220.00  0.351   11520   -5478   13332      2.15  0.936   3502   -8.97  CR   
 40  300.23   87511  1.015  347.4  241.13  220.00  0.357   11520   -5426   13351      2.10  0.934   3538   -8.93  CR   
 60  296.26   81200  0.955  345.1  248.37  220.00  0.370   11520   -5267   13383      2.07  0.930   3599   -8.83  CR   
 80  292.30   75262  0.897  342.7  255.92  220.00  0.384   11520   -5062   13401      2.07  0.925   3649   -8.69  CR   
100  288.34   69682  0.842  340.4  263.79  220.00  0.399   11520   -4838   13404      2.11  0.920   3692   -8.54  CR   
120  284.38   64441  0.789  338.1  272.00  220.00  0.414   11520   -4610   13388      2.16  0.914   3729   -8.37  CR   
140  280.41   59524  0.739  335.7  280.56  220.00  0.430   11520   -4385   13352      2.22  0.908   3763   -8.20  CR   
160  276.45   54915  0.692  333.3  289.49  220.00  0.447   11520   -4164   13299      2.27  0.902   3792   -8.02  CR   
180  272.49   50600  0.647  330.9  298.82  220.00  0.465   11520   -3944   13238      2.31  0.895   3819   -7.83  CR   
200  268.53   46563  0.604  328.5  308.55  220.00  0.483   11520   -3713   13191      2.33  0.888   3844   -7.64  CR   
220  264.56   42791  0.563  326.1  318.72  220.00  0.503   11520   -3458   13198      2.32  0.881   3874   -7.46  CR   
240  260.60   39271  0.525  323.6  329.33  220.00  0.524   11520   -3160   13318      2.28  0.873   3919   -7.31  CR   
250  258.62   37601  0.506  322.4  334.82  220.00  0.534   11520   -2987   13444      2.25  0.868   3951   -7.26  CR   


Medium mass DESCENT
===================

 FL    T       p      rho     a      TAS     CAS     M     mass   Thrust    Drag     Fuel    ESF    ROCD   gamma Conf  Lim
[-]   [K]     [Pa]  [kg/m3] [m/s]   [kt]    [kt]    [-]    [kg]     [N]     [N]     [kgm]    [-]   [fpm]   [deg]  [-]     
  0  308.15  101325  1.145  351.9   93.93   90.83  0.137   14570   10215   17774      7.03  0.989    465   -3.00  LD   
  5  307.16   99508  1.129  351.3   94.62   90.83  0.139   14570   10214   17774      6.93  0.989    469   -3.00  LD   
 10  306.17   97717  1.112  350.8  100.58   95.83  0.148   14570   10169   17740      6.86  0.988    498   -3.00  LD   
 15  305.18   95952  1.095  350.2  111.90  105.83  0.164   14570    3756   11349      5.67  0.985    554   -3.00  AP   
 20  304.19   94213  1.079  349.6  144.67  135.83  0.213   14570   -7521    8955      2.77  0.975   1539   -6.45  CR   
 30  302.21   90812  1.047  348.5  237.62  220.00  0.351   14570   -5478   13923      2.15  0.936   2856   -7.30  CR   
 40  300.23   87511  1.015  347.4  241.13  220.00  0.357   14570   -5426   13936      2.10  0.934   2885   -7.27  CR   
 60  296.26   81200  0.955  345.1  248.37  220.00  0.370   14570   -5267   13955      2.07  0.930   2933   -7.18  CR   
 80  292.30   75262  0.897  342.7  255.92  220.00  0.384   14570   -5062   13961      2.07  0.925   2973   -7.07  CR   
100  288.34   69682  0.842  340.4  263.79  220.00  0.399   14570   -4838   13954      2.11  0.920   3007   -6.95  CR   
120  284.38   64441  0.789  338.1  272.00  220.00  0.414   14570   -4610   13932      2.16  0.914   3038   -6.81  CR   
140  280.41   59524  0.739  335.7  280.56  220.00  0.430   14570   -4385   13895      2.22  0.908   3066   -6.67  CR   
160  276.45   54915  0.692  333.3  289.49  220.00  0.447   14570   -4164   13846      2.27  0.902   3092   -6.53  CR   
180  272.49   50600  0.647  330.9  298.82  220.00  0.465   14570   -3944   13793      2.31  0.895   3117   -6.38  CR   
200  268.53   46563  0.604  328.5  308.55  220.00  0.483   14570   -3713   13745      2.33  0.888   3139   -6.23  CR   
220  264.56   42791  0.563  326.1  318.72  220.00  0.503   14570   -3458   13708      2.32  0.881   3157   -6.07  CR   
240  260.60   39271  0.525  323.6  329.33  220.00  0.524   14570   -3160   13656      2.28  0.873   3162   -5.89  CR   
250  258.62   37601  0.506  322.4  334.82  220.00  0.534   14570   -2987   13593      2.25  0.868   3152   -5.78  CR   


High mass DESCENT
=================

 FL    T       p      rho     a      TAS     CAS     M     mass   Thrust    Drag     Fuel    ESF    ROCD   gamma Conf  Lim
[-]   [K]     [Pa]  [kg/m3] [m/s]   [kt]    [kt]    [-]    [kg]     [N]     [N]     [kgm]    [-]   [fpm]   [deg]  [-]     
  0  308.15  101325  1.145  351.9  100.19   96.89  0.146   16700   11710   20386      7.35  0.988    497   -3.00  LD   
  5  307.16   99508  1.129  351.3  100.94   96.89  0.148   16700   11709   20387      7.26  0.988    500   -3.00  LD   
 10  306.17   97717  1.112  350.8  106.93  101.89  0.157   16700   11629   20320      7.23  0.986    530   -3.00  LD   
 15  305.18   95952  1.095  350.2  118.30  111.89  0.174   16700    4358   13077      5.77  0.983    586   -3.00  AP   
 20  304.19   94213  1.079  349.6  151.12  141.89  0.222   16700   -7283   10331      2.76  0.973   1496   -6.01  CR   
 30  302.21   90812  1.047  348.5  237.62  220.00  0.351   16700   -5478   14417      2.15  0.936   2555   -6.53  CR   
 40  300.23   87511  1.015  347.4  241.13  220.00  0.357   16700   -5426   14425      2.10  0.934   2580   -6.50  CR   
 60  296.26   81200  0.955  345.1  248.37  220.00  0.370   16700   -5267   14434      2.07  0.930   2623   -6.42  CR   
 80  292.30   75262  0.897  342.7  255.92  220.00  0.384   16700   -5062   14430      2.07  0.925   2658   -6.32  CR   
100  288.34   69682  0.842  340.4  263.79  220.00  0.399   16700   -4838   14415      2.11  0.920   2688   -6.21  CR   
120  284.38   64441  0.789  338.1  272.00  220.00  0.414   16700   -4610   14387      2.16  0.914   2716   -6.09  CR   
140  280.41   59524  0.739  335.7  280.56  220.00  0.430   16700   -4385   14349      2.22  0.908   2742   -5.96  CR   
160  276.45   54915  0.692  333.3  289.49  220.00  0.447   16700   -4164   14304      2.27  0.902   2767   -5.84  CR   
180  272.49   50600  0.647  330.9  298.82  220.00  0.465   16700   -3944   14258      2.31  0.895   2790   -5.71  CR   
200  268.53   46563  0.604  328.5  308.55  220.00  0.483   16700   -3713   14208      2.33  0.888   2811   -5.58  CR   
220  264.56   42791  0.563  326.1  318.72  220.00  0.503   16700   -3458   14134      2.32  0.881   2823   -5.43  CR   
240  260.60   39271  0.525  323.6  329.33  220.00  0.524   16700   -3160   13939      2.28  0.873   2805   -5.23  CR   
250  258.62   37601  0.506  322.4  334.82  220.00  0.534   16700   -2987   13718      2.25  0.868   2771   -5.08  CR   


Low mass CRUISE
===============

 FL    T       p      rho     a      TAS     CAS     M     mass   Thrust    Drag     Fuel    ESF    ROCD   gamma Conf  Lim
[-]   [K]     [Pa]  [kg/m3] [m/s]   [kt]    [kt]    [-]    [kg]     [N]     [N]     [kgm]    [-]   [fpm]   [deg]  [-]     
  0  308.15  101325  1.145  351.9  155.12  150.00  0.227   11520    7699    7699      7.14  0.000      0    0.00  CR   
  5  307.16   99508  1.129  351.3  156.26  150.00  0.229   11520    7705    7705      7.06  0.000      0    0.00  CR   
 10  306.17   97717  1.112  350.8  157.41  150.00  0.231   11520    7711    7711      6.98  0.000      0    0.00  CR   
 15  305.18   95952  1.095  350.2  158.58  150.00  0.233   11520    7716    7716      6.91  0.000      0    0.00  CR   
 20  304.19   94213  1.079  349.6  159.75  150.00  0.235   11520    7722    7722      6.84  0.000      0    0.00  CR   
 30  302.21   90812  1.047  348.5  194.51  180.00  0.287   11520    9552    9552      7.98  0.000      0    0.00  CR   
 40  300.23   87511  1.015  347.4  197.42  180.00  0.292   11520    9567    9567      7.88  0.000      0    0.00  CR   
 60  296.26   81200  0.955  345.1  259.59  230.00  0.387   11520   14516   14516     11.49  0.000      0    0.00  CR   T
 80  292.30   75262  0.897  342.7  267.44  230.00  0.401   11520   14518   14518     11.42  0.000      0    0.00  CR   T
100  288.34   69682  0.842  340.4  251.93  210.00  0.381   11520   12358   12358      9.54  0.000      0    0.00  CR   
120  284.38   64441  0.789  338.1  259.80  210.00  0.395   11520   12360   12360      9.48  0.000      0    0.00  CR   T
140  280.41   59524  0.739  335.7  268.02  210.00  0.411   11520   12347   12347      9.43  0.000      0    0.00  CR   T
160  276.45   54915  0.692  333.3  276.59  210.00  0.427   11520   12316   12316      9.41  0.000      0    0.00  CR   T
180  272.49   50600  0.647  330.9  285.55  210.00  0.444   11520   12271   12271      9.42  0.000      0    0.00  CR   T
200  268.53   46563  0.604  328.5  287.35  204.48  0.450   11520   11712   11712      8.95  0.000      0    0.00  CR   T
220  264.56   42791  0.563  326.1  285.22  196.21  0.450   11520   10943   10943      8.27  0.000      0    0.00  CR   T
240  260.60   39271  0.525  323.6  283.08  188.13  0.450   11520   10242   10242      7.65  0.000      0    0.00  CR   T
250  258.62   37601  0.506  322.4  282.00  184.16  0.450   11520    9916    9916      7.36  0.000      0    0.00  CR   T


Medium mass CRUISE
==================

 FL    T       p      rho     a      TAS     CAS     M     mass   Thrust    Drag     Fuel    ESF    ROCD   gamma Conf  Lim
[-]   [K]     [Pa]  [kg/m3] [m/s]   [kt]    [kt]    [-]    [kg]     [N]     [N]     [kgm]    [-]   [fpm]   [deg]  [-]     
  0  308.15  101325  1.145  351.9  155.12  150.00  0.227   14570    9125    9125      7.54  0.000      0    0.00  CR   
  5  307.16   99508  1.129  351.3  156.26  150.00  0.229   14570    9131    9131      7.46  0.000      0    0.00  CR   
 10  306.17   97717  1.112  350.8  157.41  150.00  0.231   14570    9138    9138      7.39  0.000      0    0.00  CR   
 15  305.18   95952  1.095  350.2  158.58  150.00  0.233   14570    9144    9144      7.32  0.000      0    0.00  CR   
 20  304.19   94213  1.079  349.6  159.75  150.00  0.235   14570    9150    9150      7.25  0.000      0    0.00  CR   
 30  302.21   90812  1.047  348.5  194.51  180.00  0.287   14570   10521   10521      8.31  0.000      0    0.00  CR   
 40  300.23   87511  1.015  347.4  197.42  180.00  0.292   14570   10532   10532      8.21  0.000      0    0.00  CR   
 60  296.26   81200  0.955  345.1  259.59  230.00  0.387   14570   15026   15026     11.71  0.000      0    0.00  CR   T
 80  292.30   75262  0.897  342.7  267.44  230.00  0.401   14570   15019   15019     11.65  0.000      0    0.00  CR   T
100  288.34   69682  0.842  340.4  251.93  210.00  0.381   14570   12977   12977      9.81  0.000      0    0.00  CR   T
120  284.38   64441  0.789  338.1  259.80  210.00  0.395   14570   12968   12968      9.75  0.000      0    0.00  CR   T
140  280.41   59524  0.739  335.7  268.02  210.00  0.411   14570   12946   12946      9.72  0.000      0    0.00  CR   T
160  276.45   54915  0.692  333.3  276.59  210.00  0.427   14570   12913   12913      9.72  0.000      0    0.00  CR   T
180  272.49   50600  0.647  330.9  285.55  210.00  0.444   14570   12872   12872      9.76  0.000      0    0.00  CR   T
200  268.53   46563  0.604  328.5  287.35  204.48  0.450   14570   12350   12350      9.33  0.000      0    0.00  CR   T
220  264.56   42791  0.563  326.1  285.22  196.21  0.450   14570   11637   11637      8.69  0.000      0    0.00  CR   T
240  260.60   39271  0.525  323.6  283.08  188.13  0.450   14570   10998   10998      8.12  0.000      0    0.00  CR   T
250  258.62   37601  0.506  322.4  282.00  184.16  0.450   14570   10706   10706      7.86  0.000      0    0.00  CR   T


High mass CRUISE
================

 FL    T       p      rho     a      TAS     CAS     M     mass   Thrust    Drag     Fuel    ESF    ROCD   gamma Conf  Lim
[-]   [K]     [Pa]  [kg/m3] [m/s]   [kt]    [kt]    [-]    [kg]     [N]     [N]     [kgm]    [-]   [fpm]   [deg]  [-]     
  0  308.15  101325  1.145  351.9  155.12  150.00  0.227   16700   10318   10318      7.88  0.000      0    0.00  CR   
  5  307.16   99508  1.129  351.3  156.26  150.00  0.229   16700   10325   10325      7.81  0.000      0    0.00  CR   
 10  306.17   97717  1.112  350.8  157.41  150.00  0.231   16700   10332   10332      7.74  0.000      0    0.00  CR   
 15  305.18   95952  1.095  350.2  158.58  150.00  0.233   16700   10339   10339      7.67  0.000      0    0.00  CR   
 20  304.19   94213  1.079  349.6  159.75  150.00  0.235   16700   10345   10345      7.61  0.000      0    0.00  CR   
 30  302.21   90812  1.047  348.5  194.51  180.00  0.287   16700   11333   11333      8.60  0.000      0    0.00  CR   
 40  300.23   87511  1.015  347.4  197.42  180.00  0.292   16700   11340   11340      8.50  0.000      0    0.00  CR   
 60  296.26   81200  0.955  345.1  259.59  230.00  0.387   16700   15452   15452     11.90  0.000      0    0.00  CR   T
 80  292.30   75262  0.897  342.7  267.44  230.00  0.401   16700   15438   15438     11.84  0.000      0    0.00  CR   T
100  288.34   69682  0.842  340.4  251.93  210.00  0.381   16700   13495   13495     10.04  0.000      0    0.00  CR   T
120  284.38   64441  0.789  338.1  259.80  210.00  0.395   16700   13476   13476      9.99  0.000      0    0.00  CR   T
140  280.41   59524  0.739  335.7  268.02  210.00  0.411   16700   13448   13448      9.97  0.000      0    0.00  CR   T
160  276.45   54915  0.692  333.3  276.59  210.00  0.427   16700   13413   13413      9.99  0.000      0    0.00  CR   T
180  272.49   50600  0.647  330.9  285.55  210.00  0.444   16700   13375   13375     10.07  0.000      0    0.00  CR   T
200  268.53   46563  0.604  328.5  287.35  204.48  0.450   16700   12883   12883      9.67  0.000      0    0.00  CR   T
220  264.56   42791  0.563  326.1  285.22  196.21  0.450   16700   12218   12218      9.07  0.000      0    0.00  CR   T
240  260.60   39271  0.525  323.6  283.08  188.13  0.450   16700   11631   11631      8.56  0.000      0    0.00  CR   T
250  258.62   37601  0.506  322.4  282.00  184.16  0.450   16700   11367   11367      8.33  0.000      0    0.00  CR   T
