BADA PERFORMANCE FILE RESULTS
=============================
=============================

Low mass CLIMB
==============

 FL    T       p      rho     a      TAS     CAS     M     mass   Thrust    Drag     Fuel    ESF    ROCD   gamma Conf  Lim
[-]   [K]     [Pa]  [kg/m3] [m/s]   [kt]    [kt]    [-]    [kg]     [N]     [N]     [kgm]    [-]   [fpm]   [deg]  [-]     
  0  288.15  101325  1.225  340.3  120.50  120.50  0.182   14760   40488    9896     17.33  0.982   2532   11.97  TO   
  5  287.16   99508  1.207  339.7  131.45  130.50  0.199   14760   38448    9052     17.26  0.978   2645   11.46  IC   
 10  286.17   97717  1.190  339.1  137.47  135.50  0.209   14760   37350    9171     17.17  0.976   2646   10.96  IC   
 15  285.18   95952  1.172  338.5  173.71  170.00  0.264   14760   31861   10948     16.90  0.963   2447    8.00  IC   
 20  284.19   94213  1.155  337.9  174.98  170.00  0.266   14760   31651   10951     16.81  0.962   2438    7.91  CR   
 30  282.21   90812  1.121  336.8  177.54  170.00  0.271   14760   31232   10957     16.64  0.961   2420    7.73  CR   
 40  280.23   87511  1.088  335.6  180.16  170.00  0.276   14760   30569   10964     16.36  0.959   2371    7.47  CR   
 60  276.26   81200  1.024  333.2  185.57  170.00  0.287   14760   28639   10977     15.53  0.957   2193    6.70  CR   
 80  272.30   75262  0.963  330.8  191.22  170.00  0.297   14760   26760   10990     14.71  0.953   2012    5.96  CR   
100  268.34   69682  0.905  328.4  197.10  170.00  0.309   14760   24946   11002     13.92  0.950   1827    5.25  CR   
120  264.38   64441  0.849  326.0  203.25  170.00  0.321   14760   23207   11013     13.16  0.946   1641    4.57  CR   
140  260.41   59524  0.796  323.5  209.67  170.00  0.333   14760   21550   11020     12.43  0.943   1456    3.93  CR   
160  256.45   54915  0.746  321.0  216.38  170.00  0.347   14760   19982   11023     11.75  0.938   1273    3.33  CR   
180  252.49   50600  0.698  318.5  223.40  170.00  0.361   14760   18504   11020     11.11  0.934   1092    2.77  CR   
200  248.53   46563  0.653  316.0  230.73  170.00  0.376   14760   17116   11009     10.52  0.929    916    2.25  CR   
220  244.56   42791  0.610  313.5  238.41  170.00  0.391   14760   15818   10986      9.97  0.924    744    1.77  CR   
240  240.60   39271  0.569  311.0  246.44  170.00  0.408   14760   14604   10949      9.46  0.918    578    1.33  CR   
250  238.62   37601  0.549  309.7  250.59  170.00  0.416   14760   14026   10924      9.22  0.915    497    1.12  CR   


Medium mass CLIMB
=================

 FL    T       p      rho     a      TAS     CAS     M     mass   Thrust    Drag     Fuel    ESF    ROCD   gamma Conf  Lim
[-]   [K]     [Pa]  [kg/m3] [m/s]   [kt]    [kt]    [-]    [kg]     [N]     [N]     [kgm]    [-]   [fpm]   [deg]  [-]     
  0  288.15  101325  1.225  340.3  133.24  133.24  0.201   18740   38214   12453     17.34  0.978   1849    7.88  TO   
  5  287.16   99508  1.207  339.7  144.28  143.24  0.218   18740   36303   11535     17.22  0.974   1918    7.54  IC   
 10  286.17   97717  1.190  339.1  150.40  148.24  0.228   18740   35274   11626     17.12  0.972   1905    7.18  IC   
 15  285.18   95952  1.172  338.5  173.71  170.00  0.264   18740   31861   12481     16.90  0.963   1786    5.83  IC   
 20  284.19   94213  1.155  337.9  174.98  170.00  0.266   18740   31651   12485     16.81  0.962   1778    5.76  CR   
 30  282.21   90812  1.121  336.8  177.54  170.00  0.271   18740   31232   12493     16.64  0.961   1761    5.62  CR   
 40  280.23   87511  1.088  335.6  180.16  170.00  0.276   18740   30569   12501     16.36  0.959   1721    5.41  CR   
 60  276.26   81200  1.024  333.2  185.57  170.00  0.287   18740   28639   12514     15.53  0.957   1577    4.81  CR   
 80  272.30   75262  0.963  330.8  191.22  170.00  0.297   18740   26760   12524     14.71  0.953   1430    4.24  CR   
100  268.34   69682  0.905  328.4  197.10  170.00  0.309   18740   24946   12530     13.92  0.950   1281    3.68  CR   
120  264.38   64441  0.849  326.0  203.25  170.00  0.321   18740   23207   12529     13.16  0.946   1132    3.15  CR   
140  260.41   59524  0.796  323.5  209.67  170.00  0.333   18740   21550   12520     12.43  0.943    983    2.65  CR   
160  256.45   54915  0.746  321.0  216.38  170.00  0.347   18740   19982   12501     11.75  0.938    837    2.19  CR   
180  252.49   50600  0.698  318.5  223.40  170.00  0.361   18740   18504   12469     11.11  0.934    694    1.76  CR   
200  248.53   46563  0.653  316.0  230.73  170.00  0.376   18740   17116   12421     10.52  0.929    555    1.36  CR   
220  244.56   42791  0.610  313.5  238.41  170.00  0.391   18740   15818   12354      9.97  0.924    420    1.00  CR   
240  240.60   39271  0.569  311.0  246.44  170.00  0.408   18740   14604   12266      9.46  0.918    291    0.67  CR   
250  238.62   37601  0.549  309.7  250.59  170.00  0.416   18740   14026   12214      9.22  0.915    229    0.52  CR   


High mass CLIMB
===============

 FL    T       p      rho     a      TAS     CAS     M     mass   Thrust    Drag     Fuel    ESF    ROCD   gamma Conf  Lim
[-]   [K]     [Pa]  [kg/m3] [m/s]   [kt]    [kt]    [-]    [kg]     [N]     [N]     [kgm]    [-]   [fpm]   [deg]  [-]     
  0  288.15  101325  1.225  340.3  141.29  141.29  0.214   21500   36855   14231     17.32  0.975   1497    6.01  TO   
  5  287.16   99508  1.207  339.7  152.39  151.29  0.231   21500   35025   13282     17.18  0.971   1545    5.75  IC   
 10  286.17   97717  1.190  339.1  158.56  156.29  0.241   21500   34040   13352     17.07  0.969   1526    5.45  IC   
 15  285.18   95952  1.172  338.5  173.71  170.00  0.264   21500   31861   13758     16.90  0.963   1454    4.74  IC   
 20  284.19   94213  1.155  337.9  174.98  170.00  0.266   21500   31651   13763     16.81  0.962   1446    4.68  CR   
 30  282.21   90812  1.121  336.8  177.54  170.00  0.271   21500   31232   13773     16.64  0.961   1431    4.56  CR   
 40  280.23   87511  1.088  335.6  180.16  170.00  0.276   21500   30569   13781     16.36  0.959   1394    4.38  CR   
 60  276.26   81200  1.024  333.2  185.57  170.00  0.287   21500   28639   13795     15.53  0.957   1266    3.86  CR   
 80  272.30   75262  0.963  330.8  191.22  170.00  0.297   21500   26760   13802     14.71  0.953   1135    3.36  CR   
100  268.34   69682  0.905  328.4  197.10  170.00  0.309   21500   24946   13802     13.92  0.950   1002    2.88  CR   
120  264.38   64441  0.849  326.0  203.25  170.00  0.321   21500   23207   13793     13.16  0.946    870    2.42  CR   
140  260.41   59524  0.796  323.5  209.67  170.00  0.333   21500   21550   13770     12.43  0.943    739    1.99  CR   
160  256.45   54915  0.746  321.0  216.38  170.00  0.347   21500   19982   13732     11.75  0.938    609    1.59  CR   
180  252.49   50600  0.698  318.5  223.40  170.00  0.361   21500   18504   13675     11.11  0.934    484    1.23  CR   
200  248.53   46563  0.653  316.0  230.73  170.00  0.376   21500   17116   13597     10.52  0.929    362    0.89  CR   
220  244.56   42791  0.610  313.5  238.41  170.00  0.391   21500   15818   13493      9.97  0.924    246    0.58  CR   
240  240.60   39271  0.569  311.0  246.44  170.00  0.408   21500   14604   13364      9.46  0.918    135    0.31  CR   
250  238.62   37601  0.549  309.7  250.59  170.00  0.416   21500   14026   13289      9.22  0.915     81    0.18  CR   


Low mass DESCENT
================

 FL    T       p      rho     a      TAS     CAS     M     mass   Thrust    Drag     Fuel    ESF    ROCD   gamma Conf  Lim
[-]   [K]     [Pa]  [kg/m3] [m/s]   [kt]    [kt]    [-]    [kg]     [N]     [N]     [kgm]    [-]   [fpm]   [deg]  [-]     
  0  288.15  101325  1.225  340.3   96.17   96.17  0.145   14760    7216   14881      7.50  0.988    510   -3.00  LD   
  5  287.16   99508  1.207  339.7   96.88   96.17  0.147   14760    7214   14881      7.37  0.988    513   -3.00  LD   
 10  286.17   97717  1.190  339.1  102.66  101.17  0.156   14760    7399   15078      7.24  0.987    544   -3.00  LD   
 15  285.18   95952  1.172  338.5  113.63  111.17  0.173   14760    1962    9664      5.95  0.984    602   -3.00  AP   
 20  284.19   94213  1.155  337.9  145.33  141.17  0.221   14760   -4606    9360      3.83  0.973   1382   -5.39  CR   
 30  282.21   90812  1.121  336.8  229.62  220.00  0.351   14760   -3414   16018      3.55  0.937   2925   -7.23  CR   
 40  280.23   87511  1.088  335.6  232.96  220.00  0.357   14760   -3169   16040      3.51  0.935   2927   -7.13  CR   
 60  276.26   81200  1.024  333.2  250.67  230.00  0.387   14760   -2838   17429      3.49  0.925   3288   -7.44  CR   
 80  272.30   75262  0.963  330.8  258.13  230.00  0.401   14760   -2604   17469      3.40  0.920   3335   -7.33  CR   
100  268.34   69682  0.905  328.4  265.90  230.00  0.417   14760   -2438   17495      3.30  0.915   3392   -7.24  CR   
120  264.38   64441  0.849  326.0  274.00  230.00  0.432   14760   -2308   17501      3.20  0.909   3452   -7.15  CR   
140  260.41   59524  0.796  323.5  282.43  230.00  0.449   14760   -2195   17480      3.10  0.903   3510   -7.05  CR   
160  256.45   54915  0.746  321.0  291.22  230.00  0.467   14760   -2083   17428      3.01  0.896   3563   -6.94  CR   
180  252.49   50600  0.698  318.5  300.38  230.00  0.485   14760   -1960   17344      2.95  0.889   3608   -6.81  CR   
200  248.53   46563  0.653  316.0  309.92  230.00  0.505   14760   -1821   17247      2.90  0.882   3647   -6.67  CR   
220  244.56   42791  0.610  313.5  319.88  230.00  0.525   14760   -1662   17180      2.89  0.874   3686   -6.53  CR   
240  240.60   39271  0.569  311.0  330.26  230.00  0.546   14760   -1482   17247      2.92  0.866   3747   -6.43  CR   
250  238.62   37601  0.549  309.7  331.07  226.75  0.550   14760   -1244   16829      2.97  1.042   4362   -7.48  CR   


Medium mass DESCENT
===================

 FL    T       p      rho     a      TAS     CAS     M     mass   Thrust    Drag     Fuel    ESF    ROCD   gamma Conf  Lim
[-]   [K]     [Pa]  [kg/m3] [m/s]   [kt]    [kt]    [-]    [kg]     [N]     [N]     [kgm]    [-]   [fpm]   [deg]  [-]     
  0  288.15  101325  1.225  340.3  107.73  107.73  0.163   18740    9123   18884      7.82  0.985    571   -3.00  LD   
  5  287.16   99508  1.207  339.7  108.52  107.73  0.164   18740    9120   18884      7.70  0.985    575   -3.00  LD   
 10  286.17   97717  1.190  339.1  114.39  112.73  0.174   18740    9282   19062      7.64  0.983    606   -3.00  LD   
 15  285.18   95952  1.172  338.5  125.44  122.73  0.191   18740   10233   20047      7.83  0.980    665   -3.00  LD   
 20  284.19   94213  1.155  337.9  157.22  152.73  0.239   18740   -4401   11752      3.70  0.969   1356   -4.89  CR   
 30  282.21   90812  1.121  336.8  229.62  220.00  0.351   18740   -3414   16886      3.55  0.937   2407   -5.94  CR   
 40  280.23   87511  1.088  335.6  232.96  220.00  0.357   18740   -3169   16900      3.51  0.935   2409   -5.86  CR   
 60  276.26   81200  1.024  333.2  250.67  230.00  0.387   18740   -2838   18173      3.49  0.925   2684   -6.07  CR   
 80  272.30   75262  0.963  330.8  258.13  230.00  0.401   18740   -2604   18190      3.40  0.920   2721   -5.97  CR   
100  268.34   69682  0.905  328.4  265.90  230.00  0.417   18740   -2438   18190      3.30  0.915   2764   -5.89  CR   
120  264.38   64441  0.849  326.0  274.00  230.00  0.432   18740   -2308   18169      3.20  0.909   2810   -5.81  CR   
140  260.41   59524  0.796  323.5  282.43  230.00  0.449   18740   -2195   18121      3.10  0.903   2855   -5.73  CR   
160  256.45   54915  0.746  321.0  291.22  230.00  0.467   18740   -2083   18044      3.01  0.896   2895   -5.63  CR   
180  252.49   50600  0.698  318.5  300.38  230.00  0.485   18740   -1960   17941      2.95  0.889   2930   -5.53  CR   
200  248.53   46563  0.653  316.0  309.92  230.00  0.505   18740   -1821   17827      2.90  0.882   2960   -5.41  CR   
220  244.56   42791  0.610  313.5  319.88  230.00  0.525   18740   -1662   17739      2.89  0.874   2990   -5.30  CR   
240  240.60   39271  0.569  311.0  330.26  230.00  0.546   18740   -1482   17745      2.92  0.866   3030   -5.20  CR   
250  238.62   37601  0.549  309.7  331.07  226.75  0.550   18740   -1244   17323      2.97  1.042   3529   -6.04  CR   


High mass DESCENT
=================

 FL    T       p      rho     a      TAS     CAS     M     mass   Thrust    Drag     Fuel    ESF    ROCD   gamma Conf  Lim
[-]   [K]     [Pa]  [kg/m3] [m/s]   [kt]    [kt]    [-]    [kg]     [N]     [N]     [kgm]    [-]   [fpm]   [deg]  [-]     
  0  288.15  101325  1.225  340.3  115.04  115.04  0.174   21500   10439   21662      8.13  0.983    610   -3.00  LD   
  5  287.16   99508  1.207  339.7  115.88  115.04  0.175   21500   10436   21661      8.02  0.983    614   -3.00  LD   
 10  286.17   97717  1.190  339.1  121.80  120.04  0.185   21500   10582   21828      7.99  0.981    646   -3.00  LD   
 15  285.18   95952  1.172  338.5  132.90  130.04  0.202   21500   11513   22799      8.27  0.978    704   -3.00  LD   
 20  284.19   94213  1.155  337.9  164.73  160.04  0.251   21500   -4285   13442      3.63  0.966   1355   -4.66  CR   
 30  282.21   90812  1.121  336.8  229.62  220.00  0.351   21500   -3414   17609      3.55  0.937   2173   -5.36  CR   
 40  280.23   87511  1.088  335.6  232.96  220.00  0.357   21500   -3169   17616      3.51  0.935   2174   -5.29  CR   
 60  276.26   81200  1.024  333.2  250.67  230.00  0.387   21500   -2838   18793      3.49  0.925   2409   -5.45  CR   
 80  272.30   75262  0.963  330.8  258.13  230.00  0.401   21500   -2604   18790      3.40  0.920   2440   -5.36  CR   
100  268.34   69682  0.905  328.4  265.90  230.00  0.417   21500   -2438   18769      3.30  0.915   2477   -5.28  CR   
120  264.38   64441  0.849  326.0  274.00  230.00  0.432   21500   -2308   18725      3.20  0.909   2516   -5.20  CR   
140  260.41   59524  0.796  323.5  282.43  230.00  0.449   21500   -2195   18655      3.10  0.903   2554   -5.12  CR   
160  256.45   54915  0.746  321.0  291.22  230.00  0.467   21500   -2083   18558      3.01  0.896   2588   -5.03  CR   
180  252.49   50600  0.698  318.5  300.38  230.00  0.485   21500   -1960   18438      2.95  0.889   2617   -4.94  CR   
200  248.53   46563  0.653  316.0  309.92  230.00  0.505   21500   -1821   18310      2.90  0.882   2643   -4.83  CR   
220  244.56   42791  0.610  313.5  319.88  230.00  0.525   21500   -1662   18204      2.89  0.874   2668   -4.72  CR   
240  240.60   39271  0.569  311.0  330.26  230.00  0.546   21500   -1482   18160      2.92  0.866   2698   -4.63  CR   
250  238.62   37601  0.549  309.7  331.07  226.75  0.550   21500   -1244   17735      2.97  1.042   3145   -5.38  CR   


Low mass CRUISE
===============

 FL    T       p      rho     a      TAS     CAS     M     mass   Thrust    Drag     Fuel    ESF    ROCD   gamma Conf  Lim
[-]   [K]     [Pa]  [kg/m3] [m/s]   [kt]    [kt]    [-]    [kg]     [N]     [N]     [kgm]    [-]   [fpm]   [deg]  [-]     
  0  288.15  101325  1.225  340.3  150.00  150.00  0.227   14760    9716    9716      8.37  0.000      0    0.00  CR   
  5  287.16   99508  1.207  339.7  151.09  150.00  0.229   14760    9720    9720      8.28  0.000      0    0.00  CR   
 10  286.17   97717  1.190  339.1  152.18  150.00  0.231   14760    9724    9724      8.20  0.000      0    0.00  CR   
 15  285.18   95952  1.172  338.5  153.29  150.00  0.233   14760    9727    9727      8.12  0.000      0    0.00  CR   
 20  284.19   94213  1.155  337.9  154.41  150.00  0.235   14760    9731    9731      8.04  0.000      0    0.00  CR   
 30  282.21   90812  1.121  336.8  187.97  180.00  0.287   14760   11746   11746      9.44  0.000      0    0.00  CR   
 40  280.23   87511  1.088  335.6  190.73  180.00  0.292   14760   11754   11754      9.33  0.000      0    0.00  CR   
 60  276.26   81200  1.024  333.2  250.67  230.00  0.387   14760   17429   17429     13.31  0.000      0    0.00  CR   
 80  272.30   75262  0.963  330.8  258.13  230.00  0.401   14760   17469   17469     13.12  0.000      0    0.00  CR   
100  268.34   69682  0.905  328.4  254.48  220.00  0.399   14760   16153   16153     11.99  0.000      0    0.00  CR   
120  264.38   64441  0.849  326.0  262.26  220.00  0.414   14760   16173   16173     11.84  0.000      0    0.00  CR   
140  260.41   59524  0.796  323.5  270.37  220.00  0.430   14760   16173   16173     11.73  0.000      0    0.00  CR   
160  256.45   54915  0.746  321.0  278.83  220.00  0.447   14760   16150   16150     11.68  0.000      0    0.00  CR   
180  252.49   50600  0.698  318.5  278.64  212.95  0.450   14760   15251   15251     10.95  0.000      0    0.00  CR   
200  248.53   46563  0.653  316.0  276.44  204.48  0.450   14760   14238   14238     10.12  0.000      0    0.00  CR   
220  244.56   42791  0.610  313.5  274.23  196.21  0.450   14760   13310   13310      9.37  0.000      0    0.00  CR   
240  240.60   39271  0.569  311.0  272.00  188.13  0.450   14760   12464   12464      8.68  0.000      0    0.00  CR   
250  238.62   37601  0.549  309.7  270.88  184.16  0.450   14760   12071   12071      8.37  0.000      0    0.00  CR   


Medium mass CRUISE
==================

 FL    T       p      rho     a      TAS     CAS     M     mass   Thrust    Drag     Fuel    ESF    ROCD   gamma Conf  Lim
[-]   [K]     [Pa]  [kg/m3] [m/s]   [kt]    [kt]    [-]    [kg]     [N]     [N]     [kgm]    [-]   [fpm]   [deg]  [-]     
  0  288.15  101325  1.225  340.3  150.00  150.00  0.227   18740   11652   11652      8.95  0.000      0    0.00  CR   
  5  287.16   99508  1.207  339.7  151.09  150.00  0.229   18740   11659   11659      8.87  0.000      0    0.00  CR   
 10  286.17   97717  1.190  339.1  152.18  150.00  0.231   18740   11666   11666      8.79  0.000      0    0.00  CR   
 15  285.18   95952  1.172  338.5  153.29  150.00  0.233   18740   11673   11673      8.72  0.000      0    0.00  CR   
 20  284.19   94213  1.155  337.9  154.41  150.00  0.235   18740   11679   11679      8.64  0.000      0    0.00  CR   
 30  282.21   90812  1.121  336.8  187.97  180.00  0.287   18740   13115   13115      9.93  0.000      0    0.00  CR   
 40  280.23   87511  1.088  335.6  190.73  180.00  0.292   18740   13121   13121      9.82  0.000      0    0.00  CR   
 60  276.26   81200  1.024  333.2  250.67  230.00  0.387   18740   18173   18173     13.61  0.000      0    0.00  CR   
 80  272.30   75262  0.963  330.8  258.13  230.00  0.401   18740   18190   18190     13.43  0.000      0    0.00  CR   
100  268.34   69682  0.905  328.4  254.48  220.00  0.399   18740   16948   16948     12.33  0.000      0    0.00  CR   
120  264.38   64441  0.849  326.0  262.26  220.00  0.414   18740   16939   16939     12.19  0.000      0    0.00  CR   
140  260.41   59524  0.796  323.5  270.37  220.00  0.430   18740   16910   16910     12.11  0.000      0    0.00  CR   
160  256.45   54915  0.746  321.0  278.83  220.00  0.447   18740   16856   16856     12.11  0.000      0    0.00  CR   
180  252.49   50600  0.698  318.5  278.64  212.95  0.450   18740   16000   16000     11.42  0.000      0    0.00  CR   
200  248.53   46563  0.653  316.0  276.44  204.48  0.450   18740   15053   15053     10.65  0.000      0    0.00  CR   
220  244.56   42791  0.610  313.5  274.23  196.21  0.450   18740   14196   14196      9.95  0.000      0    0.00  CR   
240  240.60   39271  0.569  311.0  272.00  188.13  0.450   18740   13429   13429      9.35  0.000      0    0.00  CR   
250  238.62   37601  0.549  309.7  270.88  184.16  0.450   18740   13080   13080      9.08  0.000      0    0.00  CR   


High mass CRUISE
================

 FL    T       p      rho     a      TAS     CAS     M     mass   Thrust    Drag     Fuel    ESF    ROCD   gamma Conf  Lim
[-]   [K]     [Pa]  [kg/m3] [m/s]   [kt]    [kt]    [-]    [kg]     [N]     [N]     [kgm]    [-]   [fpm]   [deg]  [-]     
  0  288.15  101325  1.225  340.3  150.00  150.00  0.227   21500   13266   13266      9.44  0.000      0    0.00  CR   
  5  287.16   99508  1.207  339.7  151.09  150.00  0.229   21500   13275   13275      9.36  0.000      0    0.00  CR   
 10  286.17   97717  1.190  339.1  152.18  150.00  0.231   21500   13284   13284      9.29  0.000      0    0.00  CR   
 15  285.18   95952  1.172  338.5  153.29  150.00  0.233   21500   13293   13293      9.22  0.000      0    0.00  CR   
 20  284.19   94213  1.155  337.9  154.41  150.00  0.235   21500   13302   13302      9.15  0.000      0    0.00  CR   
 30  282.21   90812  1.121  336.8  187.97  180.00  0.287   21500   14254   14254     10.34  0.000      0    0.00  CR   
 40  280.23   87511  1.088  335.6  190.73  180.00  0.292   21500   14260   14260     10.24  0.000      0    0.00  CR   
 60  276.26   81200  1.024  333.2  250.67  230.00  0.387   21500   18793   18793     13.87  0.000      0    0.00  CR   
 80  272.30   75262  0.963  330.8  258.13  230.00  0.401   21500   18790   18790     13.69  0.000      0    0.00  CR   
100  268.34   69682  0.905  328.4  254.48  220.00  0.399   21500   17610   17610     12.62  0.000      0    0.00  CR   
120  264.38   64441  0.849  326.0  262.26  220.00  0.414   21500   17577   17577     12.50  0.000      0    0.00  CR   
140  260.41   59524  0.796  323.5  270.37  220.00  0.430   21500   17523   17523     12.44  0.000      0    0.00  CR   
160  256.45   54915  0.746  321.0  278.83  220.00  0.447   21500   17444   17444     12.48  0.000      0    0.00  CR   
180  252.49   50600  0.698  318.5  278.64  212.95  0.450   21500   16625   16625     11.85  0.000      0    0.00  CR   T
200  248.53   46563  0.653  316.0  276.44  204.48  0.450   21500   15731   15731     11.12  0.000      0    0.00  CR   
220  244.56   42791  0.610  313.5  274.23  196.21  0.450   21500   14934   14934     10.50  0.000      0    0.00  CR   T
240  240.60   39271  0.569  311.0  272.00  188.13  0.450   21500   14234   14234      9.98  0.000      0    0.00  CR   T
250  238.62   37601  0.549  309.7  270.88  184.16  0.450   21500   13920   13920      9.76  0.000      0    0.00  CR   T
