BADA PERFORMANCE FILE RESULTS
=============================
=============================

Low mass CLIMB
==============

 FL    T       p      rho     a      TAS     CAS     M     mass   Thrust    Drag     Fuel    ESF    ROCD   gamma Conf  Lim
[-]   [K]     [Pa]  [kg/m3] [m/s]   [kt]    [kt]    [-]    [kg]     [N]     [N]     [kgm]    [-]   [fpm]   [deg]  [-]     
  0  288.15  101325  1.225  340.3  122.93  122.93  0.186   13500   39104    9029     16.55  0.981   2774   12.88  TO   
  5  287.16   99508  1.207  339.7  133.89  132.93  0.203   13500   37131    8630     16.74  0.978   2853   12.15  IC   
 10  286.17   97717  1.190  339.1  139.94  137.93  0.212   13500   36070    8660     16.76  0.975   2862   11.65  IC   
 15  285.18   95952  1.172  338.5  173.71  170.00  0.264   13500   31097    9837     16.83  0.963   2720    8.89  IC   
 20  284.19   94213  1.155  337.9  174.98  170.00  0.266   13500   30892    9848     16.74  0.962   2710    8.80  CR   
 30  282.21   90812  1.121  336.8  177.54  170.00  0.271   13500   30327    9869     16.51  0.961   2669    8.54  CR   
 40  280.23   87511  1.088  335.6  180.16  170.00  0.276   13500   29389    9890     16.10  0.959   2578    8.12  CR   
 60  276.26   81200  1.024  333.2  185.57  170.00  0.287   13500   27551    9930     15.29  0.957   2393    7.32  CR   
 80  272.30   75262  0.963  330.8  191.22  170.00  0.297   13500   25767    9965     14.50  0.953   2204    6.53  CR   
100  268.34   69682  0.905  328.4  185.59  160.00  0.291   13500   25048    9455     13.73  0.955   2115    6.46  CR   
120  264.38   64441  0.849  326.0  191.39  160.00  0.302   13500   23318    9479     12.99  0.952   1929    5.71  CR   
140  260.41   59524  0.796  323.5  197.46  160.00  0.314   13500   21657    9496     12.26  0.949   1742    5.00  CR   
160  256.45   54915  0.746  321.0  203.81  160.00  0.327   13500   20067    9506     11.57  0.945   1555    4.32  CR   
180  252.49   50600  0.698  318.5  210.44  160.00  0.340   13500   18550    9506     10.91  0.941   1369    3.68  CR   
200  248.53   46563  0.653  316.0  217.38  160.00  0.354   13500   17108    9496     10.28  0.936   1185    3.08  CR   
220  244.56   42791  0.610  313.5  224.65  160.00  0.369   13500   15742    9475      9.70  0.931   1003    2.53  CR   
240  240.60   39271  0.569  311.0  232.26  160.00  0.384   13500   14452    9443      9.15  0.926    824    2.01  CR   
250  238.62   37601  0.549  309.7  236.19  160.00  0.392   13500   13837    9423      8.89  0.923    736    1.76  CR   


Medium mass CLIMB
=================

 FL    T       p      rho     a      TAS     CAS     M     mass   Thrust    Drag     Fuel    ESF    ROCD   gamma Conf  Lim
[-]   [K]     [Pa]  [kg/m3] [m/s]   [kt]    [kt]    [-]    [kg]     [N]     [N]     [kgm]    [-]   [fpm]   [deg]  [-]     
  0  288.15  101325  1.225  340.3  133.43  133.43  0.202   16395   37281   10934     16.80  0.978   2165    9.22  TO   
  5  287.16   99508  1.207  339.7  144.47  143.43  0.219   16395   35413   10582     16.89  0.974   2201    8.65  IC   
 10  286.17   97717  1.190  339.1  150.59  148.43  0.228   16395   34408   10587     16.86  0.972   2195    8.28  IC   
 15  285.18   95952  1.172  338.5  173.71  170.00  0.264   16395   31097   11133     16.83  0.963   2103    6.87  IC   
 20  284.19   94213  1.155  337.9  174.98  170.00  0.266   16395   30892   11142     16.74  0.962   2094    6.79  CR   
 30  282.21   90812  1.121  336.8  177.54  170.00  0.271   16395   30327   11160     16.51  0.961   2059    6.58  CR   
 40  280.23   87511  1.088  335.6  180.16  170.00  0.276   16395   29389   11177     16.10  0.959   1983    6.24  CR   
 60  276.26   81200  1.024  333.2  185.57  170.00  0.287   16395   27551   11208     15.29  0.957   1827    5.58  CR   
 80  272.30   75262  0.963  330.8  191.22  170.00  0.297   16395   25767   11233     14.50  0.953   1669    4.94  CR   
100  268.34   69682  0.905  328.4  185.59  160.00  0.291   16395   25048   10896     13.73  0.955   1580    4.82  CR   
120  264.38   64441  0.849  326.0  191.39  160.00  0.302   16395   23318   10906     12.99  0.952   1425    4.22  CR   
140  260.41   59524  0.796  323.5  197.46  160.00  0.314   16395   21657   10907     12.26  0.949   1268    3.64  CR   
160  256.45   54915  0.746  321.0  203.81  160.00  0.327   16395   20067   10896     11.57  0.945   1112    3.09  CR   
180  252.49   50600  0.698  318.5  210.44  160.00  0.340   16395   18550   10872     10.91  0.941    957    2.57  CR   
200  248.53   46563  0.653  316.0  217.38  160.00  0.354   16395   17108   10833     10.28  0.936    804    2.09  CR   
220  244.56   42791  0.610  313.5  224.65  160.00  0.369   16395   15742   10780      9.70  0.931    654    1.65  CR   
240  240.60   39271  0.569  311.0  232.26  160.00  0.384   16395   14452   10712      9.15  0.926    507    1.23  CR   
250  238.62   37601  0.549  309.7  236.19  160.00  0.392   16395   13837   10673      8.89  0.923    434    1.04  CR   


High mass CLIMB
===============

 FL    T       p      rho     a      TAS     CAS     M     mass   Thrust    Drag     Fuel    ESF    ROCD   gamma Conf  Lim
[-]   [K]     [Pa]  [kg/m3] [m/s]   [kt]    [kt]    [-]    [kg]     [N]     [N]     [kgm]    [-]   [fpm]   [deg]  [-]     
  0  288.15  101325  1.225  340.3  140.81  140.81  0.213   18600   36060   12392     16.92  0.975   1805    7.27  TO   
  5  287.16   99508  1.207  339.7  151.91  150.81  0.230   18600   34264   12082     16.95  0.971   1817    6.78  IC   
 10  286.17   97717  1.190  339.1  158.08  155.81  0.240   18600   33298   12065     16.90  0.969   1806    6.48  IC   
 15  285.18   95952  1.172  338.5  173.71  170.00  0.264   18600   31097   12288     16.83  0.963   1747    5.70  IC   
 20  284.19   94213  1.155  337.9  174.98  170.00  0.266   18600   30892   12296     16.74  0.962   1738    5.63  CR   
 30  282.21   90812  1.121  336.8  177.54  170.00  0.271   18600   30327   12311     16.51  0.961   1706    5.45  CR   
 40  280.23   87511  1.088  335.6  180.16  170.00  0.276   18600   29389   12325     16.10  0.959   1638    5.15  CR   
 60  276.26   81200  1.024  333.2  185.57  170.00  0.287   18600   27551   12348     15.29  0.957   1498    4.57  CR   
 80  272.30   75262  0.963  330.8  191.22  170.00  0.297   18600   25767   12362     14.50  0.953   1357    4.02  CR   
100  268.34   69682  0.905  328.4  185.59  160.00  0.291   18600   25048   12181     13.73  0.955   1267    3.86  CR   
120  264.38   64441  0.849  326.0  191.39  160.00  0.302   18600   23318   12179     12.99  0.952   1127    3.33  CR   
140  260.41   59524  0.796  323.5  197.46  160.00  0.314   18600   21657   12164     12.26  0.949    987    2.83  CR   
160  256.45   54915  0.746  321.0  203.81  160.00  0.327   18600   20067   12135     11.57  0.945    848    2.35  CR   
180  252.49   50600  0.698  318.5  210.44  160.00  0.340   18600   18550   12089     10.91  0.941    710    1.91  CR   
200  248.53   46563  0.653  316.0  217.38  160.00  0.354   18600   17108   12025     10.28  0.936    574    1.49  CR   
220  244.56   42791  0.610  313.5  224.65  160.00  0.369   18600   15742   11943      9.70  0.931    441    1.11  CR   
240  240.60   39271  0.569  311.0  232.26  160.00  0.384   18600   14452   11843      9.15  0.926    312    0.76  CR   
250  238.62   37601  0.549  309.7  236.19  160.00  0.392   18600   13837   11788      8.89  0.923    248    0.59  CR   


Low mass DESCENT
================

 FL    T       p      rho     a      TAS     CAS     M     mass   Thrust    Drag     Fuel    ESF    ROCD   gamma Conf  Lim
[-]   [K]     [Pa]  [kg/m3] [m/s]   [kt]    [kt]    [-]    [kg]     [N]     [N]     [kgm]    [-]   [fpm]   [deg]  [-]     
  0  288.15  101325  1.225  340.3   96.40   96.40  0.146   13500    6080   13091      7.07  0.988    511   -3.00  LD   
  5  287.16   99508  1.207  339.7   97.11   96.40  0.147   13500    6078   13091      6.94  0.988    515   -3.00  LD   
 10  286.17   97717  1.190  339.1  102.89  101.40  0.156   13500    6050   13073      6.80  0.986    545   -3.00  LD   
 15  285.18   95952  1.172  338.5  113.87  111.40  0.173   13500    2961   10006      6.15  0.983    603   -3.00  AP   
 20  284.19   94213  1.155  337.9  145.57  141.40  0.222   13500   -5243    8722      3.73  0.973   1513   -5.89  CR   
 30  282.21   90812  1.121  336.8  229.62  220.00  0.351   13500   -3015   14253      3.52  0.937   2842   -7.02  CR   
 40  280.23   87511  1.088  335.6  232.96  220.00  0.357   13500   -2796   14280      3.50  0.935   2845   -6.93  CR   
 60  276.26   81200  1.024  333.2  250.67  230.00  0.387   13500   -2547   15492      3.52  0.925   3199   -7.24  CR   
 80  272.30   75262  0.963  330.8  258.13  230.00  0.401   13500   -2372   15528      3.43  0.920   3252   -7.15  CR   
100  268.34   69682  0.905  328.4  265.90  230.00  0.417   13500   -2261   15556      3.33  0.915   3314   -7.07  CR   
120  264.38   64441  0.849  326.0  274.00  230.00  0.432   13500   -2184   15577      3.22  0.909   3383   -7.00  CR   
140  260.41   59524  0.796  323.5  282.43  230.00  0.449   13500   -2119   15593      3.11  0.903   3455   -6.94  CR   
160  256.45   54915  0.746  321.0  291.22  230.00  0.467   13500   -2043   15608      3.01  0.896   3524   -6.86  CR   
180  252.49   50600  0.698  318.5  300.38  230.00  0.485   13500   -1941   15623      2.92  0.889   3589   -6.78  CR   
200  248.53   46563  0.653  316.0  309.92  230.00  0.505   13500   -1796   15632      2.87  0.882   3644   -6.67  CR   
220  244.56   42791  0.610  313.5  319.88  230.00  0.525   13500   -1592   15604      2.86  0.874   3678   -6.52  CR   
240  240.60   39271  0.569  311.0  330.26  230.00  0.546   13500   -1316   15451      2.91  0.866   3668   -6.30  CR   
250  238.62   37601  0.549  309.7  331.07  226.75  0.550   13500   -1042   15015      2.98  1.042   4237   -7.26  CR   


Medium mass DESCENT
===================

 FL    T       p      rho     a      TAS     CAS     M     mass   Thrust    Drag     Fuel    ESF    ROCD   gamma Conf  Lim
[-]   [K]     [Pa]  [kg/m3] [m/s]   [kt]    [kt]    [-]    [kg]     [N]     [N]     [kgm]    [-]   [fpm]   [deg]  [-]     
  0  288.15  101325  1.225  340.3  105.73  105.73  0.160   16395    7376   15912      7.24  0.986    560   -3.00  LD   
  5  287.16   99508  1.207  339.7  106.50  105.73  0.161   16395    7374   15912      7.12  0.986    564   -3.00  LD   
 10  286.17   97717  1.190  339.1  112.35  110.73  0.170   16395    7313   15865      7.02  0.984    595   -3.00  LD   
 15  285.18   95952  1.172  338.5  123.39  120.73  0.188   16395    3576   12157      6.21  0.981    654   -3.00  AP   
 20  284.19   94213  1.155  337.9  155.16  150.73  0.236   16395   -4856   10619      3.62  0.970   1467   -5.36  CR   
 30  282.21   90812  1.121  336.8  229.62  220.00  0.351   16395   -3015   14955      3.52  0.937   2435   -6.01  CR   
 40  280.23   87511  1.088  335.6  232.96  220.00  0.357   16395   -2796   14974      3.50  0.935   2438   -5.93  CR   
 60  276.26   81200  1.024  333.2  250.67  230.00  0.387   16395   -2547   16094      3.52  0.925   2722   -6.16  CR   
 80  272.30   75262  0.963  330.8  258.13  230.00  0.401   16395   -2372   16114      3.43  0.920   2765   -6.07  CR   
100  268.34   69682  0.905  328.4  265.90  230.00  0.417   16395   -2261   16126      3.33  0.915   2817   -6.00  CR   
120  264.38   64441  0.849  326.0  274.00  230.00  0.432   16395   -2184   16132      3.22  0.909   2873   -5.94  CR   
140  260.41   59524  0.796  323.5  282.43  230.00  0.449   16395   -2119   16136      3.11  0.903   2932   -5.88  CR   
160  256.45   54915  0.746  321.0  291.22  230.00  0.467   16395   -2043   16144      3.01  0.896   2990   -5.82  CR   
180  252.49   50600  0.698  318.5  300.38  230.00  0.485   16395   -1941   16156      2.92  0.889   3045   -5.75  CR   
200  248.53   46563  0.653  316.0  309.92  230.00  0.505   16395   -1796   16166      2.87  0.882   3093   -5.66  CR   
220  244.56   42791  0.610  313.5  319.88  230.00  0.525   16395   -1592   16135      2.86  0.874   3122   -5.53  CR   
240  240.60   39271  0.569  311.0  330.26  230.00  0.546   16395   -1316   15943      2.91  0.866   3109   -5.33  CR   
250  238.62   37601  0.549  309.7  331.07  226.75  0.550   16395   -1042   15508      2.98  1.042   3596   -6.16  CR   


High mass DESCENT
=================

 FL    T       p      rho     a      TAS     CAS     M     mass   Thrust    Drag     Fuel    ESF    ROCD   gamma Conf  Lim
[-]   [K]     [Pa]  [kg/m3] [m/s]   [kt]    [kt]    [-]    [kg]     [N]     [N]     [kgm]    [-]   [fpm]   [deg]  [-]     
  0  288.15  101325  1.225  340.3  112.29  112.29  0.170   18600    8361   18062      7.44  0.984    595   -3.00  LD   
  5  287.16   99508  1.207  339.7  113.11  112.29  0.171   18600    8358   18062      7.33  0.984    599   -3.00  LD   
 10  286.17   97717  1.190  339.1  119.01  117.29  0.181   18600    8274   17995      7.25  0.982    631   -3.00  LD   
 15  285.18   95952  1.172  338.5  130.09  127.29  0.198   18600    4051   13806      6.31  0.979    689   -3.00  AP   
 20  284.19   94213  1.155  337.9  161.91  157.29  0.246   18600   -4609   12085      3.55  0.967   1452   -5.08  CR   
 30  282.21   90812  1.121  336.8  229.62  220.00  0.351   18600   -3015   15580      3.52  0.937   2221   -5.48  CR   
 40  280.23   87511  1.088  335.6  232.96  220.00  0.357   18600   -2796   15593      3.50  0.935   2224   -5.41  CR   
 60  276.26   81200  1.024  333.2  250.67  230.00  0.387   18600   -2547   16630      3.52  0.925   2469   -5.58  CR   
 80  272.30   75262  0.963  330.8  258.13  230.00  0.401   18600   -2372   16636      3.43  0.920   2506   -5.50  CR   
100  268.34   69682  0.905  328.4  265.90  230.00  0.417   18600   -2261   16634      3.33  0.915   2551   -5.44  CR   
120  264.38   64441  0.849  326.0  274.00  230.00  0.432   18600   -2184   16627      3.22  0.909   2601   -5.38  CR   
140  260.41   59524  0.796  323.5  282.43  230.00  0.449   18600   -2119   16621      3.11  0.903   2653   -5.32  CR   
160  256.45   54915  0.746  321.0  291.22  230.00  0.467   18600   -2043   16621      3.01  0.896   2705   -5.26  CR   
180  252.49   50600  0.698  318.5  300.38  230.00  0.485   18600   -1941   16632      2.92  0.889   2755   -5.20  CR   
200  248.53   46563  0.653  316.0  309.92  230.00  0.505   18600   -1796   16643      2.87  0.882   2798   -5.12  CR   
220  244.56   42791  0.610  313.5  319.88  230.00  0.525   18600   -1592   16609      2.86  0.874   2826   -5.00  CR   
240  240.60   39271  0.569  311.0  330.26  230.00  0.546   18600   -1316   16383      2.91  0.866   2810   -4.82  CR   
250  238.62   37601  0.549  309.7  331.07  226.75  0.550   18600   -1042   15948      2.98  1.042   3254   -5.57  CR   


Low mass CRUISE
===============

 FL    T       p      rho     a      TAS     CAS     M     mass   Thrust    Drag     Fuel    ESF    ROCD   gamma Conf  Lim
[-]   [K]     [Pa]  [kg/m3] [m/s]   [kt]    [kt]    [-]    [kg]     [N]     [N]     [kgm]    [-]   [fpm]   [deg]  [-]     
  0  288.15  101325  1.225  340.3  150.00  150.00  0.227   13500    8893    8893      8.10  0.000      0    0.00  CR   
  5  287.16   99508  1.207  339.7  151.09  150.00  0.229   13500    8902    8902      8.02  0.000      0    0.00  CR   
 10  286.17   97717  1.190  339.1  152.18  150.00  0.231   13500    8910    8910      7.94  0.000      0    0.00  CR   
 15  285.18   95952  1.172  338.5  153.29  150.00  0.233   13500    8919    8919      7.86  0.000      0    0.00  CR   
 20  284.19   94213  1.155  337.9  154.41  150.00  0.235   13500    8928    8928      7.79  0.000      0    0.00  CR   
 30  282.21   90812  1.121  336.8  187.97  180.00  0.287   13500   10530   10530      8.97  0.000      0    0.00  CR   
 40  280.23   87511  1.088  335.6  190.73  180.00  0.292   13500   10552   10552      8.86  0.000      0    0.00  CR   
 60  276.26   81200  1.024  333.2  250.67  230.00  0.387   13500   15492   15492     12.36  0.000      0    0.00  CR   
 80  272.30   75262  0.963  330.8  258.13  230.00  0.401   13500   15528   15528     12.20  0.000      0    0.00  CR   
100  268.34   69682  0.905  328.4  243.03  210.00  0.381   13500   13317   13317     10.34  0.000      0    0.00  CR   
120  264.38   64441  0.849  326.0  250.50  210.00  0.395   13500   13338   13338     10.20  0.000      0    0.00  CR   
140  260.41   59524  0.796  323.5  258.28  210.00  0.411   13500   13352   13352     10.08  0.000      0    0.00  CR   
160  256.45   54915  0.746  321.0  266.40  210.00  0.427   13500   13359   13359     10.02  0.000      0    0.00  CR   
180  252.49   50600  0.698  318.5  274.87  210.00  0.444   13500   13363   13363     10.02  0.000      0    0.00  CR   
200  248.53   46563  0.653  316.0  276.44  204.48  0.450   13500   12806   12806      9.54  0.000      0    0.00  CR   
220  244.56   42791  0.610  313.5  274.23  196.21  0.450   13500   12015   12015      8.85  0.000      0    0.00  CR   
240  240.60   39271  0.569  311.0  272.00  188.13  0.450   13500   11298   11298      8.22  0.000      0    0.00  CR   
250  238.62   37601  0.549  309.7  270.88  184.16  0.450   13500   10968   10968      7.94  0.000      0    0.00  CR   


Medium mass CRUISE
==================

 FL    T       p      rho     a      TAS     CAS     M     mass   Thrust    Drag     Fuel    ESF    ROCD   gamma Conf  Lim
[-]   [K]     [Pa]  [kg/m3] [m/s]   [kt]    [kt]    [-]    [kg]     [N]     [N]     [kgm]    [-]   [fpm]   [deg]  [-]     
  0  288.15  101325  1.225  340.3  150.00  150.00  0.227   16395   10579   10579      8.60  0.000      0    0.00  CR   
  5  287.16   99508  1.207  339.7  151.09  150.00  0.229   16395   10588   10588      8.53  0.000      0    0.00  CR   
 10  286.17   97717  1.190  339.1  152.18  150.00  0.231   16395   10596   10596      8.45  0.000      0    0.00  CR   
 15  285.18   95952  1.172  338.5  153.29  150.00  0.233   16395   10605   10605      8.38  0.000      0    0.00  CR   
 20  284.19   94213  1.155  337.9  154.41  150.00  0.235   16395   10613   10613      8.31  0.000      0    0.00  CR   
 30  282.21   90812  1.121  336.8  187.97  180.00  0.287   16395   11667   11667      9.39  0.000      0    0.00  CR   
 40  280.23   87511  1.088  335.6  190.73  180.00  0.292   16395   11685   11685      9.29  0.000      0    0.00  CR   
 60  276.26   81200  1.024  333.2  250.67  230.00  0.387   16395   16094   16094     12.62  0.000      0    0.00  CR   
 80  272.30   75262  0.963  330.8  258.13  230.00  0.401   16395   16114   16114     12.46  0.000      0    0.00  CR   
100  268.34   69682  0.905  328.4  243.03  210.00  0.381   16395   14050   14050     10.65  0.000      0    0.00  CR   
120  264.38   64441  0.849  326.0  250.50  210.00  0.395   16395   14052   14052     10.51  0.000      0    0.00  CR   
140  260.41   59524  0.796  323.5  258.28  210.00  0.411   16395   14046   14046     10.41  0.000      0    0.00  CR   
160  256.45   54915  0.746  321.0  266.40  210.00  0.427   16395   14034   14034     10.37  0.000      0    0.00  CR   
180  252.49   50600  0.698  318.5  274.87  210.00  0.444   16395   14022   14022     10.40  0.000      0    0.00  CR   
200  248.53   46563  0.653  316.0  276.44  204.48  0.450   16395   13497   13497      9.97  0.000      0    0.00  CR   
220  244.56   42791  0.610  313.5  274.23  196.21  0.450   16395   12767   12767      9.33  0.000      0    0.00  CR   
240  240.60   39271  0.569  311.0  272.00  188.13  0.450   16395   12118   12118      8.77  0.000      0    0.00  CR   
250  238.62   37601  0.549  309.7  270.88  184.16  0.450   16395   11824   11824      8.51  0.000      0    0.00  CR   


High mass CRUISE
================

 FL    T       p      rho     a      TAS     CAS     M     mass   Thrust    Drag     Fuel    ESF    ROCD   gamma Conf  Lim
[-]   [K]     [Pa]  [kg/m3] [m/s]   [kt]    [kt]    [-]    [kg]     [N]     [N]     [kgm]    [-]   [fpm]   [deg]  [-]     
  0  288.15  101325  1.225  340.3  150.00  150.00  0.227   18600   12083   12083      9.06  0.000      0    0.00  CR   
  5  287.16   99508  1.207  339.7  151.09  150.00  0.229   18600   12092   12092      8.98  0.000      0    0.00  CR   
 10  286.17   97717  1.190  339.1  152.18  150.00  0.231   18600   12100   12100      8.91  0.000      0    0.00  CR   
 15  285.18   95952  1.172  338.5  153.29  150.00  0.233   18600   12108   12108      8.85  0.000      0    0.00  CR   
 20  284.19   94213  1.155  337.9  154.41  150.00  0.235   18600   12115   12115      8.78  0.000      0    0.00  CR   
 30  282.21   90812  1.121  336.8  187.97  180.00  0.287   18600   12681   12681      9.78  0.000      0    0.00  CR   
 40  280.23   87511  1.088  335.6  190.73  180.00  0.292   18600   12695   12695      9.67  0.000      0    0.00  CR   
 60  276.26   81200  1.024  333.2  250.67  230.00  0.387   18600   16630   16630     12.85  0.000      0    0.00  CR   
 80  272.30   75262  0.963  330.8  258.13  230.00  0.401   18600   16636   16636     12.70  0.000      0    0.00  CR   
100  268.34   69682  0.905  328.4  243.03  210.00  0.381   18600   14704   14704     10.93  0.000      0    0.00  CR   
120  264.38   64441  0.849  326.0  250.50  210.00  0.395   18600   14689   14689     10.80  0.000      0    0.00  CR   
140  260.41   59524  0.796  323.5  258.28  210.00  0.411   18600   14665   14665     10.71  0.000      0    0.00  CR   
160  256.45   54915  0.746  321.0  266.40  210.00  0.427   18600   14637   14637     10.69  0.000      0    0.00  CR   
180  252.49   50600  0.698  318.5  274.87  210.00  0.444   18600   14610   14610     10.76  0.000      0    0.00  CR   
200  248.53   46563  0.653  316.0  276.44  204.48  0.450   18600   14113   14113     10.38  0.000      0    0.00  CR   
220  244.56   42791  0.610  313.5  274.23  196.21  0.450   18600   13437   13437      9.80  0.000      0    0.00  CR   
240  240.60   39271  0.569  311.0  272.00  188.13  0.450   18600   12849   12849      9.30  0.000      0    0.00  CR   
250  238.62   37601  0.549  309.7  270.88  184.16  0.450   18600   12587   12587      9.09  0.000      0    0.00  CR   
