BADA PERFORMANCE FILE RESULTS
=============================
=============================

Low mass CLIMB
==============

 FL    T       p      rho     a      TAS     CAS     M     mass   Thrust    Drag     Fuel    ESF    ROCD   gamma Conf  Lim
[-]   [K]     [Pa]  [kg/m3] [m/s]   [kt]    [kt]    [-]    [kg]     [N]     [N]     [kgm]    [-]   [fpm]   [deg]  [-]     
  0  308.15  101325  1.145  351.9  127.12  122.93  0.186   13500   33645    9029     15.06  0.981   2195   10.51  TO   
  5  307.16   99508  1.129  351.3  138.48  132.93  0.203   13500   31544    8630     15.09  0.977   2217    9.74  IC   
 10  306.17   97717  1.112  350.8  144.75  137.93  0.212   13500   30361    8660     15.00  0.975   2190    9.20  IC   
 15  305.18   95952  1.095  350.2  179.70  170.00  0.264   13500   25758    9837     15.05  0.962   1968    6.64  IC   
 20  304.19   94213  1.079  349.6  181.03  170.00  0.266   13500   25409    9848     14.88  0.962   1936    6.49  CR   
 30  302.21   90812  1.047  348.5  183.73  170.00  0.271   13500   24710    9869     14.54  0.960   1870    6.18  CR   
 40  300.23   87511  1.015  347.4  186.48  170.00  0.276   13500   24014    9890     14.20  0.959   1803    5.87  CR   
 60  296.26   81200  0.955  345.1  192.17  170.00  0.287   13500   22635    9930     13.53  0.956   1665    5.26  CR   
 80  292.30   75262  0.897  342.7  198.11  170.00  0.297   13500   21277    9965     12.86  0.953   1521    4.67  CR   
100  288.34   69682  0.842  340.4  192.38  160.00  0.291   13500   20879    9455     12.20  0.955   1494    4.73  CR   
120  284.38   64441  0.789  338.1  198.50  160.00  0.302   13500   19523    9479     11.56  0.951   1349    4.14  CR   
140  280.41   59524  0.739  335.7  204.91  160.00  0.314   13500   18207    9496     10.93  0.948   1202    3.58  CR   
160  276.45   54915  0.692  333.3  211.61  160.00  0.327   13500   16937    9506     10.33  0.944   1053    3.04  CR   
180  272.49   50600  0.647  330.9  218.62  160.00  0.340   13500   15717    9506      9.74  0.940    904    2.53  CR   
200  268.53   46563  0.604  328.5  225.96  160.00  0.354   13500   14549    9496      9.19  0.935    756    2.04  CR   
220  264.56   42791  0.563  326.1  233.65  160.00  0.369   13500   13436    9475      8.66  0.930    609    1.59  CR   
240  260.60   39271  0.525  323.6  241.72  160.00  0.384   13500   12381    9443      8.16  0.925    464    1.18  CR   
250  258.62   37601  0.506  322.4  245.89  160.00  0.392   13500   11876    9423      7.93  0.922    392    0.98  CR   


Medium mass CLIMB
=================

 FL    T       p      rho     a      TAS     CAS     M     mass   Thrust    Drag     Fuel    ESF    ROCD   gamma Conf  Lim
[-]   [K]     [Pa]  [kg/m3] [m/s]   [kt]    [kt]    [-]    [kg]     [N]     [N]     [kgm]    [-]   [fpm]   [deg]  [-]     
  0  308.15  101325  1.145  351.9  137.98  133.43  0.202   16395   31890   10934     15.25  0.977   1664    7.32  TO   
  5  307.16   99508  1.129  351.3  149.41  143.43  0.219   16395   29962   10582     15.22  0.974   1660    6.74  IC   
 10  306.17   97717  1.112  350.8  155.76  148.43  0.228   16395   28862   10587     15.11  0.971   1628    6.34  IC   
 15  305.18   95952  1.095  350.2  179.70  170.00  0.264   16395   25758   11133     15.05  0.962   1488    5.02  IC   
 20  304.19   94213  1.079  349.6  181.03  170.00  0.266   16395   25409   11142     14.88  0.962   1461    4.89  CR   
 30  302.21   90812  1.047  348.5  183.73  170.00  0.271   16395   24710   11160     14.54  0.960   1406    4.64  CR   
 40  300.23   87511  1.015  347.4  186.48  170.00  0.276   16395   24014   11177     14.20  0.959   1349    4.39  CR   
 60  296.26   81200  0.955  345.1  192.17  170.00  0.287   16395   22635   11208     13.53  0.956   1233    3.90  CR   
 80  292.30   75262  0.897  342.7  198.11  170.00  0.297   16395   21277   11233     12.86  0.953   1112    3.41  CR   
100  288.34   69682  0.842  340.4  192.38  160.00  0.291   16395   20879   10896     12.20  0.955   1075    3.40  CR   
120  284.38   64441  0.789  338.1  198.50  160.00  0.302   16395   19523   10906     11.56  0.951    953    2.92  CR   
140  280.41   59524  0.739  335.7  204.91  160.00  0.314   16395   18207   10907     10.93  0.948    829    2.47  CR   
160  276.45   54915  0.692  333.3  211.61  160.00  0.327   16395   16937   10896     10.33  0.944    705    2.03  CR   
180  272.49   50600  0.647  330.9  218.62  160.00  0.340   16395   15717   10872      9.74  0.940    581    1.62  CR   
200  268.53   46563  0.604  328.5  225.96  160.00  0.354   16395   14549   10833      9.19  0.935    458    1.24  CR   
220  264.56   42791  0.563  326.1  233.65  160.00  0.369   16395   13436   10780      8.66  0.930    336    0.88  CR   
240  260.60   39271  0.525  323.6  241.72  160.00  0.384   16395   12381   10712      8.16  0.925    217    0.55  CR   
250  258.62   37601  0.506  322.4  245.89  160.00  0.392   16395   11876   10673      7.93  0.922    158    0.40  CR   


High mass CLIMB
===============

 FL    T       p      rho     a      TAS     CAS     M     mass   Thrust    Drag     Fuel    ESF    ROCD   gamma Conf  Lim
[-]   [K]     [Pa]  [kg/m3] [m/s]   [kt]    [kt]    [-]    [kg]     [N]     [N]     [kgm]    [-]   [fpm]   [deg]  [-]     
  0  308.15  101325  1.145  351.9  145.62  140.81  0.213   18600   30750   12392     15.35  0.975   1353    5.63  TO   
  5  307.16   99508  1.129  351.3  157.11  150.81  0.230   18600   28923   12082     15.29  0.971   1333    5.14  IC   
 10  306.17   97717  1.112  350.8  163.51  155.81  0.240   18600   27875   12065     15.16  0.968   1299    4.82  IC   
 15  305.18   95952  1.095  350.2  179.70  170.00  0.264   18600   25758   12288     15.05  0.962   1208    4.07  IC   
 20  304.19   94213  1.079  349.6  181.03  170.00  0.266   18600   25409   12296     14.88  0.962   1184    3.96  CR   
 30  302.21   90812  1.047  348.5  183.73  170.00  0.271   18600   24710   12311     14.54  0.960   1134    3.74  CR   
 40  300.23   87511  1.015  347.4  186.48  170.00  0.276   18600   24014   12325     14.20  0.959   1083    3.52  CR   
 60  296.26   81200  0.955  345.1  192.17  170.00  0.287   18600   22635   12348     13.53  0.956    978    3.09  CR   
 80  292.30   75262  0.897  342.7  198.11  170.00  0.297   18600   21277   12362     12.86  0.953    870    2.67  CR   
100  288.34   69682  0.842  340.4  192.38  160.00  0.291   18600   20879   12181     12.20  0.955    825    2.61  CR   
120  284.38   64441  0.789  338.1  198.50  160.00  0.302   18600   19523   12179     11.56  0.951    716    2.20  CR   
140  280.41   59524  0.739  335.7  204.91  160.00  0.314   18600   18207   12164     10.93  0.948    605    1.80  CR   
160  276.45   54915  0.692  333.3  211.61  160.00  0.327   18600   16937   12135     10.33  0.944    494    1.42  CR   
180  272.49   50600  0.647  330.9  218.62  160.00  0.340   18600   15717   12089      9.74  0.940    383    1.07  CR   
200  268.53   46563  0.604  328.5  225.96  160.00  0.354   18600   14549   12025      9.19  0.935    274    0.74  CR   
220  264.56   42791  0.563  326.1  233.65  160.00  0.369   18600   13436   11943      8.66  0.930    167    0.44  CR   
240  260.60   39271  0.525  323.6  241.72  160.00  0.384   18600   12381   11843      8.16  0.925     62    0.16  CR   
250  258.62   37601  0.506  322.4  245.89  160.00  0.392   18600   11876   11788      7.93  0.922     10    0.03  CR   


Low mass DESCENT
================

 FL    T       p      rho     a      TAS     CAS     M     mass   Thrust    Drag     Fuel    ESF    ROCD   gamma Conf  Lim
[-]   [K]     [Pa]  [kg/m3] [m/s]   [kt]    [kt]    [-]    [kg]     [N]     [N]     [kgm]    [-]   [fpm]   [deg]  [-]     
  0  308.15  101325  1.145  351.9   99.69   96.40  0.146   13500    6078   13091      7.31  0.988    494   -3.00  LD   
  5  307.16   99508  1.129  351.3  100.43   96.40  0.147   13500    6077   13091      7.18  0.988    498   -3.00  LD   
 10  306.17   97717  1.112  350.8  106.43  101.40  0.156   13500    6048   13073      7.03  0.986    527   -3.00  LD   
 15  305.18   95952  1.095  350.2  117.79  111.40  0.173   13500    2959   10006      6.37  0.983    583   -3.00  AP   
 20  304.19   94213  1.079  349.6  150.61  141.40  0.222   13500   -7222    8722      3.00  0.973   1669   -6.73  CR   
 30  302.21   90812  1.047  348.5  237.62  220.00  0.351   13500   -4318   14253      2.69  0.936   2951   -7.55  CR   
 40  300.23   87511  1.015  347.4  241.13  220.00  0.357   13500   -4037   14280      2.68  0.934   2945   -7.42  CR   
 60  296.26   81200  0.955  345.1  259.59  230.00  0.387   13500   -3598   15492      2.73  0.924   3265   -7.65  CR   
 80  292.30   75262  0.897  342.7  267.44  230.00  0.401   13500   -3320   15528      2.68  0.919   3300   -7.52  CR   
100  288.34   69682  0.842  340.4  275.63  230.00  0.417   13500   -3120   15556      2.62  0.913   3347   -7.40  CR   
120  284.38   64441  0.789  338.1  284.17  230.00  0.432   13500   -2969   15577      2.55  0.907   3401   -7.30  CR   
140  280.41   59524  0.739  335.7  293.08  230.00  0.449   13500   -2844   15593      2.48  0.901   3460   -7.21  CR   
160  276.45   54915  0.692  333.3  302.36  230.00  0.467   13500   -2726   15608      2.41  0.895   3519   -7.12  CR   
180  272.49   50600  0.647  330.9  312.05  230.00  0.485   13500   -2598   15623      2.37  0.888   3577   -7.02  CR   
200  268.53   46563  0.604  328.5  322.15  230.00  0.505   13500   -2446   15632      2.36  0.880   3629   -6.90  CR   
220  264.56   42791  0.563  326.1  332.70  230.00  0.525   13500   -2256   15604      2.39  0.872   3664   -6.76  CR   
240  260.60   39271  0.525  323.6  343.71  230.00  0.546   13500   -2014   15451      2.48  0.864   3661   -6.54  CR   
250  258.62   37601  0.506  322.4  344.67  226.75  0.550   13500   -1778   15015      2.56  1.039   4243   -7.57  CR   


Medium mass DESCENT
===================

 FL    T       p      rho     a      TAS     CAS     M     mass   Thrust    Drag     Fuel    ESF    ROCD   gamma Conf  Lim
[-]   [K]     [Pa]  [kg/m3] [m/s]   [kt]    [kt]    [-]    [kg]     [N]     [N]     [kgm]    [-]   [fpm]   [deg]  [-]     
  0  308.15  101325  1.145  351.9  109.34  105.73  0.160   16395    7374   15912      7.48  0.986    542   -3.00  LD   
  5  307.16   99508  1.129  351.3  110.15  105.73  0.161   16395    7372   15912      7.36  0.985    546   -3.00  LD   
 10  306.17   97717  1.112  350.8  116.21  110.73  0.170   16395    7311   15865      7.26  0.984    576   -3.00  LD   
 15  305.18   95952  1.095  350.2  127.65  120.73  0.188   16395    3573   12157      6.43  0.980    632   -3.00  AP   
 20  304.19   94213  1.079  349.6  160.53  150.73  0.236   16395   -6763   10619      2.87  0.969   1592   -6.02  CR   
 30  302.21   90812  1.047  348.5  237.62  220.00  0.351   16395   -4318   14955      2.69  0.936   2521   -6.44  CR   
 40  300.23   87511  1.015  347.4  241.13  220.00  0.357   16395   -4037   14974      2.68  0.934   2517   -6.34  CR   
 60  296.26   81200  0.955  345.1  259.59  230.00  0.387   16395   -3598   16094      2.73  0.924   2773   -6.50  CR   
 80  292.30   75262  0.897  342.7  267.44  230.00  0.401   16395   -3320   16114      2.68  0.919   2802   -6.38  CR   
100  288.34   69682  0.842  340.4  275.63  230.00  0.417   16395   -3120   16126      2.62  0.913   2840   -6.28  CR   
120  284.38   64441  0.789  338.1  284.17  230.00  0.432   16395   -2969   16132      2.55  0.907   2884   -6.19  CR   
140  280.41   59524  0.739  335.7  293.08  230.00  0.449   16395   -2844   16136      2.48  0.901   2933   -6.11  CR   
160  276.45   54915  0.692  333.3  302.36  230.00  0.467   16395   -2726   16144      2.41  0.895   2982   -6.03  CR   
180  272.49   50600  0.647  330.9  312.05  230.00  0.485   16395   -2598   16156      2.37  0.888   3032   -5.94  CR   
200  268.53   46563  0.604  328.5  322.15  230.00  0.505   16395   -2446   16166      2.36  0.880   3076   -5.85  CR   
220  264.56   42791  0.563  326.1  332.70  230.00  0.525   16395   -2256   16135      2.39  0.872   3107   -5.72  CR   
240  260.60   39271  0.525  323.6  343.71  230.00  0.546   16395   -2014   15943      2.48  0.864   3100   -5.53  CR   
250  258.62   37601  0.506  322.4  344.67  226.75  0.550   16395   -1778   15508      2.56  1.039   3596   -6.41  CR   


High mass DESCENT
=================

 FL    T       p      rho     a      TAS     CAS     M     mass   Thrust    Drag     Fuel    ESF    ROCD   gamma Conf  Lim
[-]   [K]     [Pa]  [kg/m3] [m/s]   [kt]    [kt]    [-]    [kg]     [N]     [N]     [kgm]    [-]   [fpm]   [deg]  [-]     
  0  308.15  101325  1.145  351.9  116.12  112.29  0.170   18600    8358   18062      7.69  0.984    575   -3.00  LD   
  5  307.16   99508  1.129  351.3  116.98  112.29  0.171   18600    8356   18062      7.58  0.984    580   -3.00  LD   
 10  306.17   97717  1.112  350.8  123.09  117.29  0.181   18600    8271   17995      7.50  0.982    610   -3.00  LD   
 15  305.18   95952  1.095  350.2  134.58  127.29  0.198   18600    4047   13806      6.52  0.978    667   -3.00  AP   
 20  304.19   94213  1.079  349.6  167.51  157.29  0.246   18600   -6465   12085      2.79  0.967   1558   -5.64  CR   
 30  302.21   90812  1.047  348.5  237.62  220.00  0.351   18600   -4318   15580      2.69  0.936   2295   -5.86  CR   
 40  300.23   87511  1.015  347.4  241.13  220.00  0.357   18600   -4037   15593      2.68  0.934   2291   -5.77  CR   
 60  296.26   81200  0.955  345.1  259.59  230.00  0.387   18600   -3598   16630      2.73  0.924   2511   -5.88  CR   
 80  292.30   75262  0.897  342.7  267.44  230.00  0.401   18600   -3320   16636      2.68  0.919   2536   -5.77  CR   
100  288.34   69682  0.842  340.4  275.63  230.00  0.417   18600   -3120   16634      2.62  0.913   2569   -5.68  CR   
120  284.38   64441  0.789  338.1  284.17  230.00  0.432   18600   -2969   16627      2.55  0.907   2608   -5.59  CR   
140  280.41   59524  0.739  335.7  293.08  230.00  0.449   18600   -2844   16621      2.48  0.901   2651   -5.52  CR   
160  276.45   54915  0.692  333.3  302.36  230.00  0.467   18600   -2726   16621      2.41  0.895   2695   -5.45  CR   
180  272.49   50600  0.647  330.9  312.05  230.00  0.485   18600   -2598   16632      2.37  0.888   2740   -5.37  CR   
200  268.53   46563  0.604  328.5  322.15  230.00  0.505   18600   -2446   16643      2.36  0.880   2781   -5.28  CR   
220  264.56   42791  0.563  326.1  332.70  230.00  0.525   18600   -2256   16609      2.39  0.872   2809   -5.17  CR   
240  260.60   39271  0.525  323.6  343.71  230.00  0.546   18600   -2014   16383      2.48  0.864   2799   -5.00  CR   
250  258.62   37601  0.506  322.4  344.67  226.75  0.550   18600   -1778   15948      2.56  1.039   3250   -5.79  CR   


Low mass CRUISE
===============

 FL    T       p      rho     a      TAS     CAS     M     mass   Thrust    Drag     Fuel    ESF    ROCD   gamma Conf  Lim
[-]   [K]     [Pa]  [kg/m3] [m/s]   [kt]    [kt]    [-]    [kg]     [N]     [N]     [kgm]    [-]   [fpm]   [deg]  [-]     
  0  308.15  101325  1.145  351.9  155.12  150.00  0.227   13500    8893    8893      8.38  0.000      0    0.00  CR   
  5  307.16   99508  1.129  351.3  156.26  150.00  0.229   13500    8902    8902      8.29  0.000      0    0.00  CR   
 10  306.17   97717  1.112  350.8  157.41  150.00  0.231   13500    8910    8910      8.21  0.000      0    0.00  CR   
 15  305.18   95952  1.095  350.2  158.58  150.00  0.233   13500    8919    8919      8.13  0.000      0    0.00  CR   
 20  304.19   94213  1.079  349.6  159.75  150.00  0.235   13500    8928    8928      8.06  0.000      0    0.00  CR   
 30  302.21   90812  1.047  348.5  194.51  180.00  0.287   13500   10530   10530      9.28  0.000      0    0.00  CR   
 40  300.23   87511  1.015  347.4  197.42  180.00  0.292   13500   10552   10552      9.17  0.000      0    0.00  CR   
 60  296.26   81200  0.955  345.1  259.59  230.00  0.387   13500   15492   15492     12.79  0.000      0    0.00  CR   
 80  292.30   75262  0.897  342.7  267.44  230.00  0.401   13500   15528   15528     12.64  0.000      0    0.00  CR   
100  288.34   69682  0.842  340.4  251.93  210.00  0.381   13500   13317   13317     10.71  0.000      0    0.00  CR   
120  284.38   64441  0.789  338.1  259.80  210.00  0.395   13500   13338   13338     10.57  0.000      0    0.00  CR   
140  280.41   59524  0.739  335.7  268.02  210.00  0.411   13500   13352   13352     10.46  0.000      0    0.00  CR   
160  276.45   54915  0.692  333.3  276.59  210.00  0.427   13500   13359   13359     10.40  0.000      0    0.00  CR   
180  272.49   50600  0.647  330.9  285.55  210.00  0.444   13500   13363   13363     10.41  0.000      0    0.00  CR   
200  268.53   46563  0.604  328.5  287.35  204.48  0.450   13500   12806   12806      9.92  0.000      0    0.00  CR   
220  264.56   42791  0.563  326.1  285.22  196.21  0.450   13500   12015   12015      9.20  0.000      0    0.00  CR   
240  260.60   39271  0.525  323.6  283.08  188.13  0.450   13500   11298   11298      8.56  0.000      0    0.00  CR   
250  258.62   37601  0.506  322.4  282.00  184.16  0.450   13500   10968   10968      8.26  0.000      0    0.00  CR   


Medium mass CRUISE
==================

 FL    T       p      rho     a      TAS     CAS     M     mass   Thrust    Drag     Fuel    ESF    ROCD   gamma Conf  Lim
[-]   [K]     [Pa]  [kg/m3] [m/s]   [kt]    [kt]    [-]    [kg]     [N]     [N]     [kgm]    [-]   [fpm]   [deg]  [-]     
  0  308.15  101325  1.145  351.9  155.12  150.00  0.227   16395   10579   10579      8.90  0.000      0    0.00  CR   
  5  307.16   99508  1.129  351.3  156.26  150.00  0.229   16395   10588   10588      8.82  0.000      0    0.00  CR   
 10  306.17   97717  1.112  350.8  157.41  150.00  0.231   16395   10596   10596      8.74  0.000      0    0.00  CR   
 15  305.18   95952  1.095  350.2  158.58  150.00  0.233   16395   10605   10605      8.67  0.000      0    0.00  CR   
 20  304.19   94213  1.079  349.6  159.75  150.00  0.235   16395   10613   10613      8.60  0.000      0    0.00  CR   
 30  302.21   90812  1.047  348.5  194.51  180.00  0.287   16395   11667   11667      9.72  0.000      0    0.00  CR   
 40  300.23   87511  1.015  347.4  197.42  180.00  0.292   16395   11685   11685      9.61  0.000      0    0.00  CR   
 60  296.26   81200  0.955  345.1  259.59  230.00  0.387   16395   16094   16094     13.07  0.000      0    0.00  CR   
 80  292.30   75262  0.897  342.7  267.44  230.00  0.401   16395   16114   16114     12.91  0.000      0    0.00  CR   
100  288.34   69682  0.842  340.4  251.93  210.00  0.381   16395   14050   14050     11.04  0.000      0    0.00  CR   
120  284.38   64441  0.789  338.1  259.80  210.00  0.395   16395   14052   14052     10.90  0.000      0    0.00  CR   
140  280.41   59524  0.739  335.7  268.02  210.00  0.411   16395   14046   14046     10.80  0.000      0    0.00  CR   
160  276.45   54915  0.692  333.3  276.59  210.00  0.427   16395   14034   14034     10.76  0.000      0    0.00  CR   
180  272.49   50600  0.647  330.9  285.55  210.00  0.444   16395   14022   14022     10.81  0.000      0    0.00  CR   T
200  268.53   46563  0.604  328.5  287.35  204.48  0.450   16395   13497   13497     10.37  0.000      0    0.00  CR   T
220  264.56   42791  0.563  326.1  285.22  196.21  0.450   16395   12767   12767      9.70  0.000      0    0.00  CR   T
240  260.60   39271  0.525  323.6  283.08  188.13  0.450   16395   12118   12118      9.12  0.000      0    0.00  CR   T
250  258.62   37601  0.506  322.4  282.00  184.16  0.450   16395   11824   11824      8.86  0.000      0    0.00  CR   T


High mass CRUISE
================

 FL    T       p      rho     a      TAS     CAS     M     mass   Thrust    Drag     Fuel    ESF    ROCD   gamma Conf  Lim
[-]   [K]     [Pa]  [kg/m3] [m/s]   [kt]    [kt]    [-]    [kg]     [N]     [N]     [kgm]    [-]   [fpm]   [deg]  [-]     
  0  308.15  101325  1.145  351.9  155.12  150.00  0.227   18600   12083   12083      9.37  0.000      0    0.00  CR   
  5  307.16   99508  1.129  351.3  156.26  150.00  0.229   18600   12092   12092      9.29  0.000      0    0.00  CR   
 10  306.17   97717  1.112  350.8  157.41  150.00  0.231   18600   12100   12100      9.22  0.000      0    0.00  CR   
 15  305.18   95952  1.095  350.2  158.58  150.00  0.233   18600   12108   12108      9.15  0.000      0    0.00  CR   
 20  304.19   94213  1.079  349.6  159.75  150.00  0.235   18600   12115   12115      9.08  0.000      0    0.00  CR   
 30  302.21   90812  1.047  348.5  194.51  180.00  0.287   18600   12681   12681     10.12  0.000      0    0.00  CR   
 40  300.23   87511  1.015  347.4  197.42  180.00  0.292   18600   12695   12695     10.01  0.000      0    0.00  CR   
 60  296.26   81200  0.955  345.1  259.59  230.00  0.387   18600   16630   16630     13.31  0.000      0    0.00  CR   
 80  292.30   75262  0.897  342.7  267.44  230.00  0.401   18600   16636   16636     13.16  0.000      0    0.00  CR   
100  288.34   69682  0.842  340.4  251.93  210.00  0.381   18600   14704   14704     11.33  0.000      0    0.00  CR   
120  284.38   64441  0.789  338.1  259.80  210.00  0.395   18600   14689   14689     11.20  0.000      0    0.00  CR   
140  280.41   59524  0.739  335.7  268.02  210.00  0.411   18600   14665   14665     11.12  0.000      0    0.00  CR   
160  276.45   54915  0.692  333.3  276.59  210.00  0.427   18600   14637   14637     11.10  0.000      0    0.00  CR   
180  272.49   50600  0.647  330.9  285.55  210.00  0.444   18600   14610   14610     11.18  0.000      0    0.00  CR   T
200  268.53   46563  0.604  328.5  287.35  204.48  0.450   18600   14113   14113     10.79  0.000      0    0.00  CR   T
220  264.56   42791  0.563  326.1  285.22  196.21  0.450   18600   13437   13437     10.19  0.000      0    0.00  CR   T
240  260.60   39271  0.525  323.6  283.08  188.13  0.450   18600   12849   12849      9.68  0.000      0    0.00  CR   T
250  258.62   37601  0.506  322.4  282.00  184.16  0.450   18600   12587   12587      9.46  0.000      0    0.00  CR   T
