BADA PERFORMANCE FILE RESULTS
=============================
=============================

Low mass CLIMB
==============

 FL    T       p      rho     a      TAS     CAS     M     mass   Thrust    Drag     Fuel    ESF    ROCD   gamma Conf  Lim
[-]   [K]     [Pa]  [kg/m3] [m/s]   [kt]    [kt]    [-]    [kg]     [N]     [N]     [kgm]    [-]   [fpm]   [deg]  [-]     
  0  308.15  101325  1.145  351.9  124.61  120.50  0.182   14760   34399    9896     15.62  0.981   1960    9.56  TO   
  5  307.16   99508  1.129  351.3  135.95  130.50  0.199   14760   32405    9052     15.46  0.978   2031    9.08  IC   
 10  306.17   97717  1.112  350.8  142.20  135.50  0.209   14760   31326    9171     15.31  0.976   2010    8.59  IC   
 15  305.18   95952  1.095  350.2  179.70  170.00  0.264   14760   26900   10948     15.32  0.962   1803    6.09  IC   
 20  304.19   94213  1.079  349.6  181.03  170.00  0.266   14760   26547   10951     15.15  0.962   1774    5.95  CR   
 30  302.21   90812  1.047  348.5  183.73  170.00  0.271   14760   25835   10957     14.81  0.960   1715    5.66  CR   
 40  300.23   87511  1.015  347.4  186.48  170.00  0.276   14760   25118   10964     14.46  0.959   1653    5.38  CR   
 60  296.26   81200  0.955  345.1  192.17  170.00  0.287   14760   23673   10977     13.78  0.956   1522    4.81  CR   
 80  292.30   75262  0.897  342.7  198.11  170.00  0.297   14760   22235   10990     13.09  0.953   1383    4.24  CR   
100  288.34   69682  0.842  340.4  204.32  170.00  0.309   14760   20820   11002     12.42  0.949   1240    3.69  CR   
120  284.38   64441  0.789  338.1  210.80  170.00  0.321   14760   19444   11013     11.77  0.946   1093    3.16  CR   
140  280.41   59524  0.739  335.7  217.58  170.00  0.333   14760   18121   11020     11.13  0.942    945    2.65  CR   
160  276.45   54915  0.692  333.3  224.66  170.00  0.347   14760   16861   11023     10.53  0.937    798    2.17  CR   
180  272.49   50600  0.647  330.9  232.08  170.00  0.361   14760   15671   11020      9.96  0.933    653    1.72  CR   
200  268.53   46563  0.604  328.5  239.84  170.00  0.376   14760   14555   11009      9.42  0.928    511    1.30  CR   
220  264.56   42791  0.563  326.1  247.96  170.00  0.391   14760   13515   10986      8.92  0.922    374    0.92  CR   
240  260.60   39271  0.525  323.6  256.47  170.00  0.408   14760   12549   10949      8.46  0.916    243    0.58  CR   
250  258.62   37601  0.506  322.4  260.88  170.00  0.416   14760   12093   10924      8.25  0.913    180    0.42  CR   


Medium mass CLIMB
=================

 FL    T       p      rho     a      TAS     CAS     M     mass   Thrust    Drag     Fuel    ESF    ROCD   gamma Conf  Lim
[-]   [K]     [Pa]  [kg/m3] [m/s]   [kt]    [kt]    [-]    [kg]     [N]     [N]     [kgm]    [-]   [fpm]   [deg]  [-]     
  0  308.15  101325  1.145  351.9  137.78  133.24  0.201   18740   32399   12453     15.63  0.977   1384    6.09  TO   
  5  307.16   99508  1.129  351.3  149.22  143.24  0.218   18740   30695   11535     15.51  0.974   1434    5.83  IC   
 10  306.17   97717  1.112  350.8  155.56  148.24  0.228   18740   29720   11626     15.37  0.971   1408    5.49  IC   
 15  305.18   95952  1.095  350.2  179.70  170.00  0.264   18740   26900   12481     15.32  0.962   1284    4.33  IC   
 20  304.19   94213  1.079  349.6  181.03  170.00  0.266   18740   26547   12485     15.15  0.962   1260    4.22  CR   
 30  302.21   90812  1.047  348.5  183.73  170.00  0.271   18740   25835   12493     14.81  0.960   1211    4.00  CR   
 40  300.23   87511  1.015  347.4  186.48  170.00  0.276   18740   25118   12501     14.46  0.959   1160    3.77  CR   
 60  296.26   81200  0.955  345.1  192.17  170.00  0.287   18740   23673   12514     13.78  0.956   1053    3.33  CR   
 80  292.30   75262  0.897  342.7  198.11  170.00  0.297   18740   22235   12524     13.09  0.953    941    2.89  CR   
100  288.34   69682  0.842  340.4  204.32  170.00  0.309   18740   20820   12530     12.42  0.949    825    2.45  CR   
120  284.38   64441  0.789  338.1  210.80  170.00  0.321   18740   19444   12529     11.77  0.946    706    2.04  CR   
140  280.41   59524  0.739  335.7  217.58  170.00  0.333   18740   18121   12520     11.13  0.942    587    1.64  CR   
160  276.45   54915  0.692  333.3  224.66  170.00  0.347   18740   16861   12501     10.53  0.937    469    1.27  CR   
180  272.49   50600  0.647  330.9  232.08  170.00  0.361   18740   15671   12469      9.96  0.933    354    0.93  CR   
200  268.53   46563  0.604  328.5  239.84  170.00  0.376   18740   14555   12421      9.42  0.928    242    0.62  CR   
220  264.56   42791  0.563  326.1  247.96  170.00  0.391   18740   13515   12354      8.92  0.922    135    0.33  CR   
240  260.60   39271  0.525  323.6  256.47  170.00  0.408   18740   12549   12266      8.46  0.916     34    0.08  CR   
250  258.62   37601  0.506  322.4  260.88  170.00  0.416   18740   12093   12214      8.25  0.913    -15   -0.03  CR   


High mass CLIMB
===============

 FL    T       p      rho     a      TAS     CAS     M     mass   Thrust    Drag     Fuel    ESF    ROCD   gamma Conf  Lim
[-]   [K]     [Pa]  [kg/m3] [m/s]   [kt]    [kt]    [-]    [kg]     [N]     [N]     [kgm]    [-]   [fpm]   [deg]  [-]     
  0  308.15  101325  1.145  351.9  146.11  141.29  0.214   21500   31308   14231     15.66  0.975   1092    4.53  TO   
  5  307.16   99508  1.129  351.3  157.60  151.29  0.231   21500   29715   13282     15.55  0.971   1129    4.34  IC   
 10  306.17   97717  1.112  350.8  164.01  156.29  0.241   21500   28779   13352     15.41  0.968   1100    4.06  IC   
 15  305.18   95952  1.095  350.2  179.70  170.00  0.264   21500   26900   13758     15.32  0.962   1020    3.44  IC   
 20  304.19   94213  1.079  349.6  181.03  170.00  0.266   21500   26547   13763     15.15  0.962    999    3.34  CR   
 30  302.21   90812  1.047  348.5  183.73  170.00  0.271   21500   25835   13773     14.81  0.960    955    3.15  CR   
 40  300.23   87511  1.015  347.4  186.48  170.00  0.276   21500   25118   13781     14.46  0.959    909    2.96  CR   
 60  296.26   81200  0.955  345.1  192.17  170.00  0.287   21500   23673   13795     13.78  0.956    813    2.57  CR   
 80  292.30   75262  0.897  342.7  198.11  170.00  0.297   21500   22235   13802     13.09  0.953    712    2.18  CR   
100  288.34   69682  0.842  340.4  204.32  170.00  0.309   21500   20820   13802     12.42  0.949    608    1.81  CR   
120  284.38   64441  0.789  338.1  210.80  170.00  0.321   21500   19444   13793     11.77  0.946    503    1.45  CR   
140  280.41   59524  0.739  335.7  217.58  170.00  0.333   21500   18121   13770     11.13  0.942    398    1.11  CR   
160  276.45   54915  0.692  333.3  224.66  170.00  0.347   21500   16861   13732     10.53  0.937    294    0.80  CR   
180  272.49   50600  0.647  330.9  232.08  170.00  0.361   21500   15671   13675      9.96  0.933    192    0.51  CR   
200  268.53   46563  0.604  328.5  239.84  170.00  0.376   21500   14555   13597      9.42  0.928     95    0.24  CR   
220  264.56   42791  0.563  326.1  247.96  170.00  0.391   21500   13515   13493      8.92  0.922      2    0.01  CR   
240  260.60   39271  0.525  323.6  256.47  170.00  0.408   21500   12549   13364      8.46  0.916    -85   -0.20  CR   
250  258.62   37601  0.506  322.4  260.88  170.00  0.416   21500   12093   13289      8.25  0.913   -126   -0.30  CR   


Low mass DESCENT
================

 FL    T       p      rho     a      TAS     CAS     M     mass   Thrust    Drag     Fuel    ESF    ROCD   gamma Conf  Lim
[-]   [K]     [Pa]  [kg/m3] [m/s]   [kt]    [kt]    [-]    [kg]     [N]     [N]     [kgm]    [-]   [fpm]   [deg]  [-]     
  0  308.15  101325  1.145  351.9   99.46   96.17  0.145   14760    7214   14881      7.75  0.988    493   -3.00  LD   
  5  307.16   99508  1.129  351.3  100.19   96.17  0.147   14760    7212   14881      7.62  0.988    496   -3.00  LD   
 10  306.17   97717  1.112  350.8  106.19  101.17  0.156   14760    7397   15078      7.49  0.986    526   -3.00  LD   
 15  305.18   95952  1.095  350.2  117.55  111.17  0.173   14760    1960    9664      6.15  0.983    582   -3.00  AP   
 20  304.19   94213  1.079  349.6  150.36  141.17  0.221   14760   -6420    9360      3.28  0.973   1509   -6.09  CR   
 30  302.21   90812  1.047  348.5  237.62  220.00  0.351   14760   -4656   16018      2.68  0.936   3004   -7.68  CR   
 40  300.23   87511  1.015  347.4  241.13  220.00  0.357   14760   -4361   16040      2.67  0.934   3000   -7.56  CR   
 60  296.26   81200  0.955  345.1  259.59  230.00  0.387   14760   -3878   17429      2.67  0.924   3333   -7.82  CR   
 80  292.30   75262  0.897  342.7  267.44  230.00  0.401   14760   -3566   17469      2.62  0.919   3369   -7.67  CR   
100  288.34   69682  0.842  340.4  275.63  230.00  0.417   14760   -3334   17495      2.56  0.913   3414   -7.55  CR   
120  284.38   64441  0.789  338.1  284.17  230.00  0.432   14760   -3152   17501      2.50  0.907   3464   -7.44  CR   
140  280.41   59524  0.739  335.7  293.08  230.00  0.449   14760   -3001   17480      2.45  0.901   3515   -7.33  CR   
160  276.45   54915  0.692  333.3  302.36  230.00  0.467   14760   -2866   17428      2.40  0.895   3563   -7.21  CR   
180  272.49   50600  0.647  330.9  312.05  230.00  0.485   14760   -2737   17344      2.36  0.888   3606   -7.07  CR   
200  268.53   46563  0.604  328.5  322.15  230.00  0.505   14760   -2609   17247      2.35  0.880   3645   -6.93  CR   
220  264.56   42791  0.563  326.1  332.70  230.00  0.525   14760   -2479   17180      2.36  0.872   3689   -6.80  CR   
240  260.60   39271  0.525  323.6  343.71  230.00  0.546   14760   -2347   17247      2.42  0.864   3757   -6.71  CR   
250  258.62   37601  0.506  322.4  344.67  226.75  0.550   14760   -2146   16829      2.48  1.039   4385   -7.83  CR   


Medium mass DESCENT
===================

 FL    T       p      rho     a      TAS     CAS     M     mass   Thrust    Drag     Fuel    ESF    ROCD   gamma Conf  Lim
[-]   [K]     [Pa]  [kg/m3] [m/s]   [kt]    [kt]    [-]    [kg]     [N]     [N]     [kgm]    [-]   [fpm]   [deg]  [-]     
  0  308.15  101325  1.145  351.9  111.41  107.73  0.163   18740    9120   18884      8.09  0.985    552   -3.00  LD   
  5  307.16   99508  1.129  351.3  112.23  107.73  0.164   18740    9118   18884      7.97  0.985    556   -3.00  LD   
 10  306.17   97717  1.112  350.8  118.31  112.73  0.174   18740    9279   19062      7.90  0.983    586   -3.00  LD   
 15  305.18   95952  1.095  350.2  129.76  122.73  0.191   18740   10230   20047      8.10  0.980    643   -3.00  LD   
 20  304.19   94213  1.079  349.6  162.66  152.73  0.239   18740   -6139   11752      3.09  0.969   1451   -5.41  CR   
 30  302.21   90812  1.047  348.5  237.62  220.00  0.351   18740   -4656   16886      2.68  0.936   2466   -6.30  CR   
 40  300.23   87511  1.015  347.4  241.13  220.00  0.357   18740   -4361   16900      2.67  0.934   2463   -6.20  CR   
 60  296.26   81200  0.955  345.1  259.59  230.00  0.387   18740   -3878   18173      2.67  0.924   2717   -6.36  CR   
 80  292.30   75262  0.897  342.7  267.44  230.00  0.401   18740   -3566   18190      2.62  0.919   2744   -6.24  CR   
100  288.34   69682  0.842  340.4  275.63  230.00  0.417   18740   -3334   18190      2.56  0.913   2779   -6.14  CR   
120  284.38   64441  0.789  338.1  284.17  230.00  0.432   18740   -3152   18169      2.50  0.907   2817   -6.04  CR   
140  280.41   59524  0.739  335.7  293.08  230.00  0.449   18740   -3001   18121      2.45  0.901   2855   -5.95  CR   
160  276.45   54915  0.692  333.3  302.36  230.00  0.467   18740   -2866   18044      2.40  0.895   2891   -5.84  CR   
180  272.49   50600  0.647  330.9  312.05  230.00  0.485   18740   -2737   17941      2.36  0.888   2924   -5.73  CR   
200  268.53   46563  0.604  328.5  322.15  230.00  0.505   18740   -2609   17827      2.35  0.880   2955   -5.62  CR   
220  264.56   42791  0.563  326.1  332.70  230.00  0.525   18740   -2479   17739      2.36  0.872   2988   -5.51  CR   
240  260.60   39271  0.525  323.6  343.71  230.00  0.546   18740   -2347   17745      2.42  0.864   3034   -5.42  CR   
250  258.62   37601  0.506  322.4  344.67  226.75  0.550   18740   -2146   17323      2.48  1.039   3543   -6.32  CR   


High mass DESCENT
=================

 FL    T       p      rho     a      TAS     CAS     M     mass   Thrust    Drag     Fuel    ESF    ROCD   gamma Conf  Lim
[-]   [K]     [Pa]  [kg/m3] [m/s]   [kt]    [kt]    [-]    [kg]     [N]     [N]     [kgm]    [-]   [fpm]   [deg]  [-]     
  0  308.15  101325  1.145  351.9  118.96  115.04  0.174   21500   10437   21662      8.41  0.983    590   -3.00  LD   
  5  307.16   99508  1.129  351.3  119.84  115.04  0.175   21500   10433   21661      8.30  0.983    594   -3.00  LD   
 10  306.17   97717  1.112  350.8  125.98  120.04  0.185   21500   10578   21828      8.27  0.981    624   -3.00  LD   
 15  305.18   95952  1.095  350.2  137.48  130.04  0.202   21500   11509   22799      8.55  0.977    681   -3.00  LD   
 20  304.19   94213  1.079  349.6  170.43  160.04  0.251   21500   -5974   13442      2.99  0.966   1434   -5.10  CR   
 30  302.21   90812  1.047  348.5  237.62  220.00  0.351   21500   -4656   17609      2.68  0.936   2221   -5.67  CR   
 40  300.23   87511  1.015  347.4  241.13  220.00  0.357   21500   -4361   17616      2.67  0.934   2219   -5.59  CR   
 60  296.26   81200  0.955  345.1  259.59  230.00  0.387   21500   -3878   18793      2.67  0.924   2435   -5.70  CR   
 80  292.30   75262  0.897  342.7  267.44  230.00  0.401   21500   -3566   18790      2.62  0.919   2458   -5.59  CR   
100  288.34   69682  0.842  340.4  275.63  230.00  0.417   21500   -3334   18769      2.56  0.913   2487   -5.49  CR   
120  284.38   64441  0.789  338.1  284.17  230.00  0.432   21500   -3152   18725      2.50  0.907   2519   -5.40  CR   
140  280.41   59524  0.739  335.7  293.08  230.00  0.449   21500   -3001   18655      2.45  0.901   2552   -5.31  CR   
160  276.45   54915  0.692  333.3  302.36  230.00  0.467   21500   -2866   18558      2.40  0.895   2582   -5.22  CR   
180  272.49   50600  0.647  330.9  312.05  230.00  0.485   21500   -2737   18438      2.36  0.888   2610   -5.11  CR   
200  268.53   46563  0.604  328.5  322.15  230.00  0.505   21500   -2609   18310      2.35  0.880   2636   -5.01  CR   
220  264.56   42791  0.563  326.1  332.70  230.00  0.525   21500   -2479   18204      2.36  0.872   2664   -4.91  CR   
240  260.60   39271  0.525  323.6  343.71  230.00  0.546   21500   -2347   18160      2.42  0.864   2699   -4.82  CR   
250  258.62   37601  0.506  322.4  344.67  226.75  0.550   21500   -2146   17735      2.48  1.039   3154   -5.62  CR   


Low mass CRUISE
===============

 FL    T       p      rho     a      TAS     CAS     M     mass   Thrust    Drag     Fuel    ESF    ROCD   gamma Conf  Lim
[-]   [K]     [Pa]  [kg/m3] [m/s]   [kt]    [kt]    [-]    [kg]     [N]     [N]     [kgm]    [-]   [fpm]   [deg]  [-]     
  0  308.15  101325  1.145  351.9  155.12  150.00  0.227   14760    9716    9716      8.66  0.000      0    0.00  CR   
  5  307.16   99508  1.129  351.3  156.26  150.00  0.229   14760    9720    9720      8.57  0.000      0    0.00  CR   
 10  306.17   97717  1.112  350.8  157.41  150.00  0.231   14760    9724    9724      8.48  0.000      0    0.00  CR   
 15  305.18   95952  1.095  350.2  158.58  150.00  0.233   14760    9727    9727      8.40  0.000      0    0.00  CR   
 20  304.19   94213  1.079  349.6  159.75  150.00  0.235   14760    9731    9731      8.32  0.000      0    0.00  CR   
 30  302.21   90812  1.047  348.5  194.51  180.00  0.287   14760   11746   11746      9.76  0.000      0    0.00  CR   
 40  300.23   87511  1.015  347.4  197.42  180.00  0.292   14760   11754   11754      9.66  0.000      0    0.00  CR   
 60  296.26   81200  0.955  345.1  259.59  230.00  0.387   14760   17429   17429     13.78  0.000      0    0.00  CR   
 80  292.30   75262  0.897  342.7  267.44  230.00  0.401   14760   17469   17469     13.59  0.000      0    0.00  CR   T
100  288.34   69682  0.842  340.4  263.79  220.00  0.399   14760   16153   16153     12.43  0.000      0    0.00  CR   
120  284.38   64441  0.789  338.1  272.00  220.00  0.414   14760   16173   16173     12.28  0.000      0    0.00  CR   T
140  280.41   59524  0.739  335.7  280.56  220.00  0.430   14760   16173   16173     12.17  0.000      0    0.00  CR   T
160  276.45   54915  0.692  333.3  289.49  220.00  0.447   14760   16150   16150     12.13  0.000      0    0.00  CR   T
180  272.49   50600  0.647  330.9  289.46  212.95  0.450   14760   15251   15251     11.38  0.000      0    0.00  CR   T
200  268.53   46563  0.604  328.5  287.35  204.48  0.450   14760   14238   14238     10.52  0.000      0    0.00  CR   T
220  264.56   42791  0.563  326.1  285.22  196.21  0.450   14760   13310   13310      9.74  0.000      0    0.00  CR   T
240  260.60   39271  0.525  323.6  283.08  188.13  0.450   14760   12464   12464      9.04  0.000      0    0.00  CR   T
250  258.62   37601  0.506  322.4  282.00  184.16  0.450   14760   12071   12071      8.71  0.000      0    0.00  CR   T


Medium mass CRUISE
==================

 FL    T       p      rho     a      TAS     CAS     M     mass   Thrust    Drag     Fuel    ESF    ROCD   gamma Conf  Lim
[-]   [K]     [Pa]  [kg/m3] [m/s]   [kt]    [kt]    [-]    [kg]     [N]     [N]     [kgm]    [-]   [fpm]   [deg]  [-]     
  0  308.15  101325  1.145  351.9  155.12  150.00  0.227   18740   11652   11652      9.25  0.000      0    0.00  CR   
  5  307.16   99508  1.129  351.3  156.26  150.00  0.229   18740   11659   11659      9.17  0.000      0    0.00  CR   
 10  306.17   97717  1.112  350.8  157.41  150.00  0.231   18740   11666   11666      9.09  0.000      0    0.00  CR   
 15  305.18   95952  1.095  350.2  158.58  150.00  0.233   18740   11673   11673      9.02  0.000      0    0.00  CR   
 20  304.19   94213  1.079  349.6  159.75  150.00  0.235   18740   11679   11679      8.94  0.000      0    0.00  CR   
 30  302.21   90812  1.047  348.5  194.51  180.00  0.287   18740   13115   13115     10.27  0.000      0    0.00  CR   
 40  300.23   87511  1.015  347.4  197.42  180.00  0.292   18740   13121   13121     10.17  0.000      0    0.00  CR   
 60  296.26   81200  0.955  345.1  259.59  230.00  0.387   18740   18173   18173     14.10  0.000      0    0.00  CR   T
 80  292.30   75262  0.897  342.7  267.44  230.00  0.401   18740   18190   18190     13.91  0.000      0    0.00  CR   T
100  288.34   69682  0.842  340.4  263.79  220.00  0.399   18740   16948   16948     12.78  0.000      0    0.00  CR   T
120  284.38   64441  0.789  338.1  272.00  220.00  0.414   18740   16939   16939     12.64  0.000      0    0.00  CR   T
140  280.41   59524  0.739  335.7  280.56  220.00  0.430   18740   16910   16910     12.56  0.000      0    0.00  CR   T
160  276.45   54915  0.692  333.3  289.49  220.00  0.447   18740   16856   16856     12.57  0.000      0    0.00  CR   T
180  272.49   50600  0.647  330.9  289.46  212.95  0.450   18740   16000   16000     11.87  0.000      0    0.00  CR   T
200  268.53   46563  0.604  328.5  287.35  204.48  0.450   18740   15053   15053     11.07  0.000      0    0.00  CR   T
220  264.56   42791  0.563  326.1  285.22  196.21  0.450   18740   14196   14196     10.35  0.000      0    0.00  CR   T
240  260.60   39271  0.525  323.6  283.08  188.13  0.450   18740   13429   13429      9.73  0.000      0    0.00  CR   T
250  258.62   37601  0.506  322.4  282.00  184.16  0.450   18740   13080   13080      9.45  0.000      0    0.00  CR   T


High mass CRUISE
================

 FL    T       p      rho     a      TAS     CAS     M     mass   Thrust    Drag     Fuel    ESF    ROCD   gamma Conf  Lim
[-]   [K]     [Pa]  [kg/m3] [m/s]   [kt]    [kt]    [-]    [kg]     [N]     [N]     [kgm]    [-]   [fpm]   [deg]  [-]     
  0  308.15  101325  1.145  351.9  155.12  150.00  0.227   21500   13266   13266      9.76  0.000      0    0.00  CR   
  5  307.16   99508  1.129  351.3  156.26  150.00  0.229   21500   13275   13275      9.68  0.000      0    0.00  CR   
 10  306.17   97717  1.112  350.8  157.41  150.00  0.231   21500   13284   13284      9.61  0.000      0    0.00  CR   
 15  305.18   95952  1.095  350.2  158.58  150.00  0.233   21500   13293   13293      9.54  0.000      0    0.00  CR   
 20  304.19   94213  1.079  349.6  159.75  150.00  0.235   21500   13302   13302      9.47  0.000      0    0.00  CR   
 30  302.21   90812  1.047  348.5  194.51  180.00  0.287   21500   14254   14254     10.70  0.000      0    0.00  CR   
 40  300.23   87511  1.015  347.4  197.42  180.00  0.292   21500   14260   14260     10.60  0.000      0    0.00  CR   
 60  296.26   81200  0.955  345.1  259.59  230.00  0.387   21500   18793   18793     14.36  0.000      0    0.00  CR   T
 80  292.30   75262  0.897  342.7  267.44  230.00  0.401   21500   18790   18790     14.19  0.000      0    0.00  CR   T
100  288.34   69682  0.842  340.4  263.79  220.00  0.399   21500   17610   17610     13.08  0.000      0    0.00  CR   T
120  284.38   64441  0.789  338.1  272.00  220.00  0.414   21500   17577   17577     12.96  0.000      0    0.00  CR   T
140  280.41   59524  0.739  335.7  280.56  220.00  0.430   21500   17523   17523     12.91  0.000      0    0.00  CR   T
160  276.45   54915  0.692  333.3  289.49  220.00  0.447   21500   17444   17444     12.96  0.000      0    0.00  CR   T
180  272.49   50600  0.647  330.9  289.46  212.95  0.450   21500   16625   16625     12.31  0.000      0    0.00  CR   T
200  268.53   46563  0.604  328.5  287.35  204.48  0.450   21500   15731   15731     11.56  0.000      0    0.00  CR   T
220  264.56   42791  0.563  326.1  285.22  196.21  0.450   21500   14934   14934     10.92  0.000      0    0.00  CR   T
240  260.60   39271  0.525  323.6  283.08  188.13  0.450   21500   14234   14234     10.39  0.000      0    0.00  CR   T
250  258.62   37601  0.506  322.4  282.00  184.16  0.450   21500   13920   13920     10.17  0.000      0    0.00  CR   T
