BADA PERFORMANCE FILE RESULTS
=============================
=============================

Low mass CLIMB
==============

 FL    T       p      rho     a      TAS     CAS     M     mass   Thrust    Drag     Fuel    ESF    ROCD   gamma Conf  Lim
[-]   [K]     [Pa]  [kg/m3] [m/s]   [kt]    [kt]    [-]    [kg]     [N]     [N]     [kgm]    [-]   [fpm]   [deg]  [-]     
  0  288.15  101325  1.225  340.3  124.11  124.11  0.188   15840   39873    9690     17.51  0.981   2395   10.98  TO   
  5  287.16   99508  1.207  339.7  135.08  134.11  0.205   15840   37877    9808     17.42  0.977   2415   10.17  IC   
 10  286.17   97717  1.190  339.1  141.14  139.11  0.214   15840   36803    9922     17.32  0.975   2412    9.71  IC   
 15  285.18   95952  1.172  338.5  173.71  170.00  0.264   15840   31931   11429     17.00  0.963   2235    7.30  IC   
 20  284.19   94213  1.155  337.9  174.98  170.00  0.266   15840   31720   11431     16.92  0.962   2227    7.22  CR   
 30  282.21   90812  1.121  336.8  177.54  170.00  0.271   15840   31301   11436     16.77  0.961   2209    7.06  CR   
 40  280.23   87511  1.088  335.6  180.16  170.00  0.276   15840   30884   11441     16.62  0.959   2191    6.90  CR   
 60  276.26   81200  1.024  333.2  185.57  170.00  0.287   15840   29271   11451     15.96  0.957   2062    6.30  CR   
 80  272.30   75262  0.963  330.8  191.22  170.00  0.297   15840   27376   11461     15.14  0.953   1892    5.61  CR   
100  268.34   69682  0.905  328.4  197.10  170.00  0.309   15840   25544   11470     14.35  0.950   1718    4.94  CR   
120  264.38   64441  0.849  326.0  203.25  170.00  0.321   15840   23785   11478     13.58  0.946   1543    4.30  CR   
140  260.41   59524  0.796  323.5  209.67  170.00  0.333   15840   22104   11483     12.85  0.943   1368    3.70  CR   
160  256.45   54915  0.746  321.0  216.38  170.00  0.347   15840   20507   11485     12.17  0.938   1194    3.12  CR   
180  252.49   50600  0.698  318.5  223.40  170.00  0.361   15840   18997   11481     11.53  0.934   1022    2.59  CR   
200  248.53   46563  0.653  316.0  230.73  170.00  0.376   15840   17573   11470     10.93  0.929    853    2.09  CR   
220  244.56   42791  0.610  313.5  238.41  170.00  0.391   15840   16235   11449     10.39  0.924    687    1.63  CR   
240  240.60   39271  0.569  311.0  246.44  170.00  0.408   15840   14981   11415      9.89  0.918    526    1.21  CR   
250  238.62   37601  0.549  309.7  250.59  170.00  0.416   15840   14384   11393      9.65  0.915    447    1.01  CR   


Medium mass CLIMB
=================

 FL    T       p      rho     a      TAS     CAS     M     mass   Thrust    Drag     Fuel    ESF    ROCD   gamma Conf  Lim
[-]   [K]     [Pa]  [kg/m3] [m/s]   [kt]    [kt]    [-]    [kg]     [N]     [N]     [kgm]    [-]   [fpm]   [deg]  [-]     
  0  288.15  101325  1.225  340.3  136.75  136.75  0.207   19920   37668   12180     17.48  0.977   1765    7.32  TO   
  5  287.16   99508  1.207  339.7  147.81  146.75  0.224   19920   35799   12378     17.34  0.973   1746    6.70  IC   
 10  286.17   97717  1.190  339.1  153.96  151.75  0.234   19920   34792   12462     17.22  0.970   1730    6.37  IC   
 15  285.18   95952  1.172  338.5  173.71  170.00  0.264   19920   31931   13114     17.00  0.963   1631    5.32  IC   
 20  284.19   94213  1.155  337.9  174.98  170.00  0.266   19920   31720   13118     16.92  0.962   1624    5.26  CR   
 30  282.21   90812  1.121  336.8  177.54  170.00  0.271   19920   31301   13126     16.77  0.961   1607    5.13  CR   
 40  280.23   87511  1.088  335.6  180.16  170.00  0.276   19920   30884   13133     16.62  0.959   1591    5.00  CR   
 60  276.26   81200  1.024  333.2  185.57  170.00  0.287   19920   29271   13146     15.96  0.957   1484    4.53  CR   
 80  272.30   75262  0.963  330.8  191.22  170.00  0.297   19920   27376   13155     15.14  0.953   1344    3.98  CR   
100  268.34   69682  0.905  328.4  197.10  170.00  0.309   19920   25544   13161     14.35  0.950   1202    3.45  CR   
120  264.38   64441  0.849  326.0  203.25  170.00  0.321   19920   23785   13162     13.58  0.946   1059    2.95  CR   
140  260.41   59524  0.796  323.5  209.67  170.00  0.333   19920   22104   13155     12.85  0.943    917    2.47  CR   
160  256.45   54915  0.746  321.0  216.38  170.00  0.347   19920   20507   13139     12.17  0.938    776    2.03  CR   
180  252.49   50600  0.698  318.5  223.40  170.00  0.361   19920   18997   13111     11.53  0.934    636    1.61  CR   
200  248.53   46563  0.653  316.0  230.73  170.00  0.376   19920   17573   13070     10.93  0.929    500    1.23  CR   
220  244.56   42791  0.610  313.5  238.41  170.00  0.391   19920   16235   13012     10.39  0.924    368    0.87  CR   
240  240.60   39271  0.569  311.0  246.44  170.00  0.408   19920   14981   12937      9.89  0.918    240    0.55  CR   
250  238.62   37601  0.549  309.7  250.59  170.00  0.416   19920   14384   12893      9.65  0.915    177    0.40  CR   


High mass CLIMB
===============

 FL    T       p      rho     a      TAS     CAS     M     mass   Thrust    Drag     Fuel    ESF    ROCD   gamma Conf  Lim
[-]   [K]     [Pa]  [kg/m3] [m/s]   [kt]    [kt]    [-]    [kg]     [N]     [N]     [kgm]    [-]   [fpm]   [deg]  [-]     
  0  288.15  101325  1.225  340.3  144.90  144.90  0.219   22800   36325   13951     17.43  0.974   1430    5.59  TO   
  5  287.16   99508  1.207  339.7  156.02  154.90  0.236   22800   34536   14217     17.27  0.970   1393    5.06  IC   
 10  286.17   97717  1.190  339.1  162.23  159.90  0.246   22800   33572   14279     17.16  0.967   1371    4.79  IC   
 15  285.18   95952  1.172  338.5  173.71  170.00  0.264   22800   31931   14535     17.00  0.963   1318    4.30  IC   
 20  284.19   94213  1.155  337.9  174.98  170.00  0.266   22800   31720   14540     16.92  0.962   1310    4.24  CR   
 30  282.21   90812  1.121  336.8  177.54  170.00  0.271   22800   31301   14550     16.77  0.961   1294    4.13  CR   
 40  280.23   87511  1.088  335.6  180.16  170.00  0.276   22800   30884   14559     16.62  0.959   1278    4.02  CR   
 60  276.26   81200  1.024  333.2  185.57  170.00  0.287   22800   29271   14575     15.96  0.957   1182    3.60  CR   
 80  272.30   75262  0.963  330.8  191.22  170.00  0.297   22800   27376   14585     15.14  0.953   1056    3.13  CR   
100  268.34   69682  0.905  328.4  197.10  170.00  0.309   22800   25544   14588     14.35  0.950    929    2.67  CR   
120  264.38   64441  0.849  326.0  203.25  170.00  0.321   22800   23785   14582     13.58  0.946    802    2.23  CR   
140  260.41   59524  0.796  323.5  209.67  170.00  0.333   22800   22104   14564     12.85  0.943    675    1.82  CR   
160  256.45   54915  0.746  321.0  216.38  170.00  0.347   22800   20507   14533     12.17  0.938    549    1.44  CR   
180  252.49   50600  0.698  318.5  223.40  170.00  0.361   22800   18997   14486     11.53  0.934    426    1.08  CR   
200  248.53   46563  0.653  316.0  230.73  170.00  0.376   22800   17573   14419     10.93  0.929    306    0.75  CR   
220  244.56   42791  0.610  313.5  238.41  170.00  0.391   22800   16235   14331     10.39  0.924    190    0.45  CR   
240  240.60   39271  0.569  311.0  246.44  170.00  0.408   22800   14981   14221      9.89  0.918     78    0.18  CR   
250  238.62   37601  0.549  309.7  250.59  170.00  0.416   22800   14384   14159      9.65  0.915     23    0.05  CR   


Low mass DESCENT
================

 FL    T       p      rho     a      TAS     CAS     M     mass   Thrust    Drag     Fuel    ESF    ROCD   gamma Conf  Lim
[-]   [K]     [Pa]  [kg/m3] [m/s]   [kt]    [kt]    [-]    [kg]     [N]     [N]     [kgm]    [-]   [fpm]   [deg]  [-]     
  0  288.15  101325  1.225  340.3   99.45   99.45  0.150   15840    7345   15578      8.08  0.987    527   -3.00  LD   
  5  287.16   99508  1.207  339.7  100.18   99.45  0.152   15840    7343   15578      7.93  0.987    531   -3.00  LD   
 10  286.17   97717  1.190  339.1  105.98  104.45  0.161   15840    7482   15730      7.73  0.986    562   -3.00  LD   
 15  285.18   95952  1.172  338.5  116.98  114.45  0.178   15840    1577    9851      6.23  0.983    620   -3.00  AP   
 20  284.19   94213  1.155  337.9  148.70  144.45  0.226   15840   -5155   10094      3.61  0.972   1437   -5.48  CR   
 30  282.21   90812  1.121  336.8  229.62  220.00  0.351   15840   -2535   16323      3.53  0.937   2645   -6.53  CR   
 40  280.23   87511  1.088  335.6  232.96  220.00  0.357   15840   -2300   16341      3.50  0.935   2647   -6.44  CR   
 60  276.26   81200  1.024  333.2  250.67  230.00  0.387   15840   -1993   17693      3.51  0.925   2976   -6.73  CR   
 80  272.30   75262  0.963  330.8  258.13  230.00  0.401   15840   -1820   17725      3.42  0.920   3026   -6.65  CR   
100  268.34   69682  0.905  328.4  265.90  230.00  0.417   15840   -1721   17744      3.31  0.915   3086   -6.58  CR   
120  264.38   64441  0.849  326.0  274.00  230.00  0.432   15840   -1664   17744      3.21  0.909   3151   -6.52  CR   
140  260.41   59524  0.796  323.5  282.43  230.00  0.449   15840   -1623   17718      3.10  0.903   3215   -6.45  CR   
160  256.45   54915  0.746  321.0  291.22  230.00  0.467   15840   -1578   17661      3.01  0.896   3274   -6.37  CR   
180  252.49   50600  0.698  318.5  300.38  230.00  0.485   15840   -1510   17575      2.93  0.889   3324   -6.27  CR   
200  248.53   46563  0.653  316.0  309.92  230.00  0.505   15840   -1406   17475      2.88  0.882   3365   -6.15  CR   
220  244.56   42791  0.610  313.5  319.88  230.00  0.525   15840   -1251   17405      2.87  0.874   3401   -6.03  CR   
240  240.60   39271  0.569  311.0  330.26  230.00  0.546   15840   -1033   17465      2.91  0.866   3448   -5.92  CR   
250  238.62   37601  0.549  309.7  331.07  226.75  0.550   15840    -768   17056      2.97  1.042   4009   -6.87  CR   


Medium mass DESCENT
===================

 FL    T       p      rho     a      TAS     CAS     M     mass   Thrust    Drag     Fuel    ESF    ROCD   gamma Conf  Lim
[-]   [K]     [Pa]  [kg/m3] [m/s]   [kt]    [kt]    [-]    [kg]     [N]     [N]     [kgm]    [-]   [fpm]   [deg]  [-]     
  0  288.15  101325  1.225  340.3  110.92  110.92  0.168   19920    9202   19588      8.27  0.984    588   -3.00  LD   
  5  287.16   99508  1.207  339.7  111.73  110.92  0.169   19920    9200   19588      8.13  0.984    592   -3.00  LD   
 10  286.17   97717  1.190  339.1  117.62  115.92  0.178   19920    9310   19716      7.99  0.982    623   -3.00  LD   
 15  285.18   95952  1.172  338.5  128.69  125.92  0.196   19920   10158   20601      8.07  0.979    682   -3.00  LD   
 20  284.19   94213  1.155  337.9  160.50  155.92  0.244   19920   -4610   12573      3.50  0.968   1384   -4.88  CR   
 30  282.21   90812  1.121  336.8  229.62  220.00  0.351   19920   -2535   17296      3.53  0.937   2212   -5.46  CR   
 40  280.23   87511  1.088  335.6  232.96  220.00  0.357   19920   -2300   17307      3.50  0.935   2214   -5.38  CR   
 60  276.26   81200  1.024  333.2  250.67  230.00  0.387   19920   -1993   18541      3.51  0.925   2468   -5.58  CR   
 80  272.30   75262  0.963  330.8  258.13  230.00  0.401   19920   -1820   18554      3.42  0.920   2508   -5.51  CR   
100  268.34   69682  0.905  328.4  265.90  230.00  0.417   19920   -1721   18553      3.31  0.915   2556   -5.45  CR   
120  264.38   64441  0.849  326.0  274.00  230.00  0.432   19920   -1664   18531      3.21  0.909   2607   -5.39  CR   
140  260.41   59524  0.796  323.5  282.43  230.00  0.449   19920   -1623   18485      3.10  0.903   2658   -5.33  CR   
160  256.45   54915  0.746  321.0  291.22  230.00  0.467   19920   -1578   18411      3.01  0.896   2705   -5.26  CR   
180  252.49   50600  0.698  318.5  300.38  230.00  0.485   19920   -1510   18312      2.93  0.889   2745   -5.18  CR   
200  248.53   46563  0.653  316.0  309.92  230.00  0.505   19920   -1406   18202      2.88  0.882   2779   -5.08  CR   
220  244.56   42791  0.610  313.5  319.88  230.00  0.525   19920   -1251   18115      2.87  0.874   2807   -4.97  CR   
240  240.60   39271  0.569  311.0  330.26  230.00  0.546   19920   -1033   18108      2.91  0.866   2837   -4.87  CR   
250  238.62   37601  0.549  309.7  331.07  226.75  0.550   19920    -768   17696      2.97  1.042   3302   -5.65  CR   


High mass DESCENT
=================

 FL    T       p      rho     a      TAS     CAS     M     mass   Thrust    Drag     Fuel    ESF    ROCD   gamma Conf  Lim
[-]   [K]     [Pa]  [kg/m3] [m/s]   [kt]    [kt]    [-]    [kg]     [N]     [N]     [kgm]    [-]   [fpm]   [deg]  [-]     
  0  288.15  101325  1.225  340.3  118.32  118.32  0.179   22800   10507   22419      8.51  0.982    627   -3.00  LD   
  5  287.16   99508  1.207  339.7  119.18  118.32  0.180   22800   10504   22419      8.38  0.982    632   -3.00  LD   
 10  286.17   97717  1.190  339.1  125.12  123.32  0.190   22800   10595   22533      8.28  0.980    663   -3.00  LD   
 15  285.18   95952  1.172  338.5  136.25  133.32  0.207   22800   11415   23398      8.44  0.977    722   -3.00  LD   
 20  284.19   94213  1.155  337.9  168.11  163.32  0.256   22800   -4295   14356      3.46  0.965   1370   -4.62  CR   
 30  282.21   90812  1.121  336.8  229.62  220.00  0.351   22800   -2535   18117      3.53  0.937   2013   -4.97  CR   
 40  280.23   87511  1.088  335.6  232.96  220.00  0.357   22800   -2300   18122      3.50  0.935   2015   -4.90  CR   
 60  276.26   81200  1.024  333.2  250.67  230.00  0.387   22800   -1993   19256      3.51  0.925   2231   -5.04  CR   
 80  272.30   75262  0.963  330.8  258.13  230.00  0.401   22800   -1820   19253      3.42  0.920   2266   -4.97  CR   
100  268.34   69682  0.905  328.4  265.90  230.00  0.417   22800   -1721   19234      3.31  0.915   2308   -4.92  CR   
120  264.38   64441  0.849  326.0  274.00  230.00  0.432   22800   -1664   19195      3.21  0.909   2353   -4.86  CR   
140  260.41   59524  0.796  323.5  282.43  230.00  0.449   22800   -1623   19131      3.10  0.903   2397   -4.81  CR   
160  256.45   54915  0.746  321.0  291.22  230.00  0.467   22800   -1578   19043      3.01  0.896   2438   -4.74  CR   
180  252.49   50600  0.698  318.5  300.38  230.00  0.485   22800   -1510   18933      2.93  0.889   2474   -4.66  CR   
200  248.53   46563  0.653  316.0  309.92  230.00  0.505   22800   -1406   18816      2.88  0.882   2504   -4.58  CR   
220  244.56   42791  0.610  313.5  319.88  230.00  0.525   22800   -1251   18713      2.87  0.874   2528   -4.48  CR   
240  240.60   39271  0.569  311.0  330.26  230.00  0.546   22800   -1033   18649      2.91  0.866   2549   -4.37  CR   
250  238.62   37601  0.549  309.7  331.07  226.75  0.550   22800    -768   18235      2.97  1.042   2969   -5.08  CR   


Low mass CRUISE
===============

 FL    T       p      rho     a      TAS     CAS     M     mass   Thrust    Drag     Fuel    ESF    ROCD   gamma Conf  Lim
[-]   [K]     [Pa]  [kg/m3] [m/s]   [kt]    [kt]    [-]    [kg]     [N]     [N]     [kgm]    [-]   [fpm]   [deg]  [-]     
  0  288.15  101325  1.225  340.3  150.00  150.00  0.227   15840   10293   10293      8.63  0.000      0    0.00  CR   
  5  287.16   99508  1.207  339.7  151.09  150.00  0.229   15840   10297   10297      8.53  0.000      0    0.00  CR   
 10  286.17   97717  1.190  339.1  152.18  150.00  0.231   15840   10300   10300      8.44  0.000      0    0.00  CR   
 15  285.18   95952  1.172  338.5  153.29  150.00  0.233   15840   10304   10304      8.35  0.000      0    0.00  CR   
 20  284.19   94213  1.155  337.9  154.41  150.00  0.235   15840   10308   10308      8.26  0.000      0    0.00  CR   
 30  282.21   90812  1.121  336.8  187.97  180.00  0.287   15840   12185   12185      9.49  0.000      0    0.00  CR   
 40  280.23   87511  1.088  335.6  190.73  180.00  0.292   15840   12190   12190      9.38  0.000      0    0.00  CR   
 60  276.26   81200  1.024  333.2  250.67  230.00  0.387   15840   17693   17693     13.36  0.000      0    0.00  CR   
 80  272.30   75262  0.963  330.8  258.13  230.00  0.401   15840   17725   17725     13.21  0.000      0    0.00  CR   
100  268.34   69682  0.905  328.4  254.48  220.00  0.399   15840   16433   16433     12.09  0.000      0    0.00  CR   
120  264.38   64441  0.849  326.0  262.26  220.00  0.414   15840   16447   16447     11.98  0.000      0    0.00  CR   
140  260.41   59524  0.796  323.5  270.37  220.00  0.430   15840   16444   16444     11.91  0.000      0    0.00  CR   
160  256.45   54915  0.746  321.0  278.83  220.00  0.447   15840   16417   16417     11.92  0.000      0    0.00  CR   
180  252.49   50600  0.698  318.5  278.64  212.95  0.450   15840   15540   15540     11.22  0.000      0    0.00  CR   
200  248.53   46563  0.653  316.0  276.44  204.48  0.450   15840   14557   14557     10.42  0.000      0    0.00  CR   
220  244.56   42791  0.610  313.5  274.23  196.21  0.450   15840   13661   13661      9.69  0.000      0    0.00  CR   
240  240.60   39271  0.569  311.0  272.00  188.13  0.450   15840   12851   12851      9.05  0.000      0    0.00  CR   
250  238.62   37601  0.549  309.7  270.88  184.16  0.450   15840   12477   12477      8.76  0.000      0    0.00  CR   


Medium mass CRUISE
==================

 FL    T       p      rho     a      TAS     CAS     M     mass   Thrust    Drag     Fuel    ESF    ROCD   gamma Conf  Lim
[-]   [K]     [Pa]  [kg/m3] [m/s]   [kt]    [kt]    [-]    [kg]     [N]     [N]     [kgm]    [-]   [fpm]   [deg]  [-]     
  0  288.15  101325  1.225  340.3  150.00  150.00  0.227   19920   12416   12416      9.25  0.000      0    0.00  CR   
  5  287.16   99508  1.207  339.7  151.09  150.00  0.229   19920   12423   12423      9.16  0.000      0    0.00  CR   
 10  286.17   97717  1.190  339.1  152.18  150.00  0.231   19920   12430   12430      9.07  0.000      0    0.00  CR   
 15  285.18   95952  1.172  338.5  153.29  150.00  0.233   19920   12437   12437      8.99  0.000      0    0.00  CR   
 20  284.19   94213  1.155  337.9  154.41  150.00  0.235   19920   12444   12444      8.91  0.000      0    0.00  CR   
 30  282.21   90812  1.121  336.8  187.97  180.00  0.287   19920   13693   13693     10.04  0.000      0    0.00  CR   
 40  280.23   87511  1.088  335.6  190.73  180.00  0.292   19920   13699   13699      9.94  0.000      0    0.00  CR   
 60  276.26   81200  1.024  333.2  250.67  230.00  0.387   19920   18541   18541     13.74  0.000      0    0.00  CR   
 80  272.30   75262  0.963  330.8  258.13  230.00  0.401   19920   18554   18554     13.60  0.000      0    0.00  CR   
100  268.34   69682  0.905  328.4  254.48  220.00  0.399   19920   17346   17346     12.52  0.000      0    0.00  CR   
120  264.38   64441  0.849  326.0  262.26  220.00  0.414   19920   17337   17337     12.43  0.000      0    0.00  CR   
140  260.41   59524  0.796  323.5  270.37  220.00  0.430   19920   17309   17309     12.41  0.000      0    0.00  CR   
160  256.45   54915  0.746  321.0  278.83  220.00  0.447   19920   17259   17259     12.49  0.000      0    0.00  CR   
180  252.49   50600  0.698  318.5  278.64  212.95  0.450   19920   16437   16437     11.85  0.000      0    0.00  CR   
200  248.53   46563  0.653  316.0  276.44  204.48  0.450   19920   15532   15532     11.13  0.000      0    0.00  CR   
220  244.56   42791  0.610  313.5  274.23  196.21  0.450   19920   14722   14722     10.50  0.000      0    0.00  CR   
240  240.60   39271  0.569  311.0  272.00  188.13  0.450   19920   14007   14007      9.97  0.000      0    0.00  CR   T
250  238.62   37601  0.549  309.7  270.88  184.16  0.450   19920   13684   13684      9.74  0.000      0    0.00  CR   T


High mass CRUISE
================

 FL    T       p      rho     a      TAS     CAS     M     mass   Thrust    Drag     Fuel    ESF    ROCD   gamma Conf  Lim
[-]   [K]     [Pa]  [kg/m3] [m/s]   [kt]    [kt]    [-]    [kg]     [N]     [N]     [kgm]    [-]   [fpm]   [deg]  [-]     
  0  288.15  101325  1.225  340.3  150.00  150.00  0.227   22800   14205   14205      9.78  0.000      0    0.00  CR   
  5  287.16   99508  1.207  339.7  151.09  150.00  0.229   22800   14215   14215      9.70  0.000      0    0.00  CR   
 10  286.17   97717  1.190  339.1  152.18  150.00  0.231   22800   14226   14226      9.62  0.000      0    0.00  CR   
 15  285.18   95952  1.172  338.5  153.29  150.00  0.233   22800   14236   14236      9.54  0.000      0    0.00  CR   
 20  284.19   94213  1.155  337.9  154.41  150.00  0.235   22800   14245   14245      9.47  0.000      0    0.00  CR   
 30  282.21   90812  1.121  336.8  187.97  180.00  0.287   22800   14965   14965     10.51  0.000      0    0.00  CR   
 40  280.23   87511  1.088  335.6  190.73  180.00  0.292   22800   14971   14971     10.41  0.000      0    0.00  CR   
 60  276.26   81200  1.024  333.2  250.67  230.00  0.387   22800   19256   19256     14.06  0.000      0    0.00  CR   
 80  272.30   75262  0.963  330.8  258.13  230.00  0.401   22800   19253   19253     13.93  0.000      0    0.00  CR   
100  268.34   69682  0.905  328.4  254.48  220.00  0.399   22800   18115   18115     12.88  0.000      0    0.00  CR   
120  264.38   64441  0.849  326.0  262.26  220.00  0.414   22800   18087   18087     12.83  0.000      0    0.00  CR   
140  260.41   59524  0.796  323.5  270.37  220.00  0.430   22800   18039   18039     12.85  0.000      0    0.00  CR   
160  256.45   54915  0.746  321.0  278.83  220.00  0.447   22800   17970   17970     13.00  0.000      0    0.00  CR   T
180  252.49   50600  0.698  318.5  278.64  212.95  0.450   22800   17193   17193     12.44  0.000      0    0.00  CR   T
200  248.53   46563  0.653  316.0  276.44  204.48  0.450   22800   16354   16354     11.79  0.000      0    0.00  CR   T
220  244.56   42791  0.610  313.5  274.23  196.21  0.450   22800   15616   15616     11.26  0.000      0    0.00  CR   T
240  240.60   39271  0.569  311.0  272.00  188.13  0.450   22800   14981   14981     10.86  0.000      0    0.00  CR   T
250  238.62   37601  0.549  309.7  270.88  184.16  0.450   22800   14702   14702     10.72  0.000      0    0.00  CR   T
